"id","clase","ener_media","ener_50","ener_25","ener_75","gabor_media","gabor_25","gabor_50","gabor_75","amplitud_mean","amplitud_desv","amplitud_p25","amplitud_p75","w_m","w_25","w_50","w_75","std"
16936,"N",0.968206233534178,0.321811336213319,0.204536723820167,0.502799404837315,0.0530092515719953,0.0445848074221879,0.0445848074221879,0.0644649155577742,0.146250582692262,0.175802425337415,0.0486725680530071,0.169247783720493,3.2894736842055e-07,-0.0270725,-0.000445,0.020475,0.124475082016191
28623,"N",0.572980186301221,0.11373284266598,0.0549670874570628,0.471018907217904,0.0418871329292171,0.04134036501503,0.04134036501503,0.0576372093434938,0.138453984503738,0.174164923248218,0.0601010117679834,0.12929293513298,-2.08333333333539e-07,-0.0420075,-0.006005,0.0187925,0.149522540174504
34648,"N",0.518048854411634,0.138999274393627,0.0635171657441616,0.853575593320949,0.039086986047299,0.0371139017738707,0.0371139017738707,0.0442324316402655,0.455648924646696,0.172695528055717,0.416195869445801,0.508474588394165,-4.20168067226717e-07,-0.0332,0.00209,0.03312,0.145529983871896
59563,"N",0.844801301516925,0.22817908433855,0.148818337445069,0.866281547028957,0.0514627806984292,0.0463070258596058,0.0463070258596058,0.0682035790915172,0.121375964051317,0.186915728335556,0.0345744676887989,0.111702129244804,1.09890109889251e-07,-0.022935,-0.00362,0.01353,0.139006999907635
43204,"N",0.763296513696713,0.184057394951702,0.0270779600369044,0.681098315696557,0.0499340447949577,0.0462383921056344,0.0462383921056344,0.0645918876387116,0.212085765287546,0.159256689544905,0.150240391492844,0.196213945746422,-2.67857142856865e-07,-0.0716975,-0.00733,0.00807,0.152775069073976
35518,"N",3.07985383434826,3.2091018144849,2.36120508707181,3.60328389325859,0.0714122750629405,0.0244192260827026,0.0244192260827026,0.05950838016337,0.394675217114571,0.120349192969748,0.357459366321564,0.395125553011894,8.13008130079941e-08,-0.01372,0.00082,0.01685,0.0981918361393633
64085,"N",5.17345528735811,4.377266606155,3.78055070835039,5.66121720821586,0.0938986919074585,0.0365466340927876,0.0365466340927876,0.101806591187239,0.486904060538811,0.117934462828711,0.441121488809586,0.520560771226883,-3.79746835442458e-07,-0.009955,-0.00099,0.009225,0.0816853623463152
6052,"N",1.3567229729147,0.758416658227783,0.698140464177288,0.910225273579026,0.0640414181082926,0.0504367450485807,0.0504367450485807,0.0788806311926981,0.325796506146518,0.161810261094816,0.218045115470886,0.409774422645569,2.15827338130714e-07,-0.03553,-0.00463,0.0257,0.0956158060084667
54428,"N",2.89643367555692,2.50178661366696,2.20122494740111,3.67806084609359,0.0689452879083729,0.0220327138121478,0.0220327138121478,0.0485425642313659,0.203028100985102,0.193759441160294,0.0777616277337074,0.212209299206734,-3.33333333333774e-07,-0.03438,-0.00096,0.0459575,0.149437824399422
9968,"N",0.874152213749771,0.538989594451549,0.282852590728709,0.7768611293727,0.0543961503586869,0.0448395914112897,0.0448395914112897,0.0631426773333345,0.419327800109134,0.183857859200607,0.297250851988792,0.52233675122261,1.62601626015693e-07,-0.04084,0.0063,0.03891,0.0921363141592857
56571,"N",0.954024120079827,0.386013966505204,0.212192821638012,0.74532006635974,0.0528625516543107,0.0457258769206696,0.0457258769206696,0.0640388194882575,0.112698957710186,0.170704047777786,0.0521126762032509,0.0943662002682686,8.13008130080817e-08,-0.038225,-0.00104,0.015465,0.127609633793372
17711,"N",1.89663976431351,1.68819514546752,1.48124032415069,2.37473630828363,0.0548752732243289,0.0187716039537315,0.0187716039537315,0.0610621628753101,0.168514194889265,0.212764771463419,0.0658227875828743,0.144303798675537,-2.912621359226e-07,-0.023505,-0.00286,0.01688,0.14681493307373
34613,"N",0.917922136298001,0.270915859280054,0.179284311552667,0.467703638848757,0.0512924675243996,0.0455821224109517,0.0455821224109517,0.0648972335132593,0.414100352721759,0.176340508953099,0.382113814353943,0.473577231168747,1.01010101011126e-07,-0.025075,0.00163,0.020255,0.120794795472549
38920,"N",3.09444826181959,2.78993230538235,2.18981571717353,3.78361788555765,0.0781335780625964,0.031685693924733,0.031685693924733,0.104396919755494,0.345665491174862,0.128716166135317,0.297138050198555,0.368686854839325,4.81927710843156e-07,-0.033175,-0.00276,0.010175,0.0877014674892325
27036,"N",0.247772944734845,0.12039732923683,0.0349516219686144,0.336267035985147,0.0290492254899636,0.022123470139743,0.022123470139743,0.0359416248711381,0.153088884904634,0.159163231328089,0.0817995890974998,0.153374239802361,7.75193798448878e-08,-0.06327,-0.00746,0.02384,0.131842300717894
24231,"N",1.61715865408706,1.36778512913357,1.00976022045057,2.22504625075704,0.0626288154116025,0.0403812642646573,0.0403812642646573,0.0702971143638393,0.276891377959196,0.17925913885937,0.20552884042263,0.34134615957737,3.29670329670729e-07,-0.041315,-0.00441,0.031395,0.136739252037109
5821,"N",0.615007486509382,0.249519309384422,0.213121939992237,0.357348624742701,0.0384843454577858,0.0321141265540496,0.0321141265540496,0.047717163684376,0.346027778337399,0.185770448330846,0.250624999403954,0.409374997019768,4.44444444444949e-07,-0.05105,-0.008945,0.0234525,0.154479209189167
15656,"N",0.441323828647799,0.160791741029774,0.142072919241349,0.451978961181881,0.0326834591695131,0.0277193908746829,0.0277193908746829,0.039418111640242,0.267738641120302,0.19803141923229,0.12557427585125,0.338437974452972,3.84615384615699e-07,-0.02771,-0.00405,0.018455,0.140252069924233
62677,"N",1.38471503804566,0.864968874481334,0.28399456315094,1.6360299391144,0.0624151035109307,0.0484524369281904,0.0484524369281904,0.0703801839624232,0.202448087815195,0.182295273858008,0.103825137019157,0.193078324198723,1.59999999999771e-07,-0.04665,-0.00311,0.03126,0.124193154218793
19711,"N",0.867289948275574,0.218470173842304,0.153562018562418,0.460613217551267,0.0505384484986802,0.04491357876534,0.04491357876534,0.066093368937182,0.13958188187331,0.157675209355752,0.0862369351089001,0.12891985476017,-5.9999999999884e-07,-0.02152,-0.00167,0.01616,0.143425204643079
6351,"N",2.45832677639637,2.81757469911951,1.2238736824567,3.22607566518309,0.0686063480037792,0.0262211166297243,0.0262211166297243,0.0755762410052536,0.200606210662399,0.178461825980933,0.107664234936237,0.215328469872475,-3.38983050847989e-07,-0.0652375,-0.01095,0.04025,0.166039137945843
54677,"N",0.754586487857307,0.282923702116792,0.0593831146928054,0.758816659443801,0.0474498372450329,0.0396279618408699,0.0396279618408699,0.0623918896633319,0.157843636097849,0.153442510975189,0.0892857164144516,0.154761910438538,7.09219858151252e-08,-0.01533,-0.00055,0.01724,0.113664666243023
10248,"N",2.76455157594039,2.62516730978743,1.98297228733875,3.65153819953813,0.076302321229038,0.0396511489543691,0.0396511489543691,0.0969099826612994,0.217839792301165,0.166542482651408,0.15384615957737,0.198717951774597,-3.7383177570121e-07,-0.07789,0.00772,0.031965,0.141507716763548
3302,"N",0.586228407467383,0.276059097695194,0.144771155700516,0.437606407541385,0.0342728184338364,0.0240963145774169,0.0240963145774169,0.039358611719888,0.424080749311926,0.168548344000456,0.352739736437798,0.466438360512257,1.31578947367697e-07,-0.0324875,0.000855,0.0326475,0.145301883020544
16438,"N",0.511535070814355,0.226713399469048,0.0990163360127228,0.466080618528781,0.0322210868086488,0.0251723632492486,0.0251723632492486,0.0369813913921296,0.220721253287902,0.170863392757703,0.15005861222744,0.20750293135643,-3.66972477065111e-07,-0.05798,4e-05,0.0329,0.146085890621761
64431,"N",0.485097519661904,0.0730654009255883,0.0138676185205027,0.333551974656528,0.0392692281830566,0.0364705477902975,0.0364705477902975,0.054326013114961,0.333639924668453,0.146959500899735,0.283942565321922,0.345300264656544,2.27272727272249e-07,-0.0184175,-0.0043,0.0099825,0.134058188755337
29432,"N",0.504363226428277,0.169838546621919,0.112642063362414,0.539317568370629,0.0350213555762726,0.0312460609478666,0.0312460609478666,0.0415052638435496,0.275834543607198,0.190356338627154,0.140420906245708,0.339622639119625,-2.50000000000668e-07,-0.0191975,0.00016,0.0174375,0.145463810950144
16123,"N",1.3356181193618,1.01705753376541,0.591947463400732,1.16082899161886,0.0531018824292779,0.0338312929928686,0.0338312929928686,0.074772559747796,0.294104781924259,0.204283918399688,0.167014613747597,0.354906052350998,-1.90476190475057e-07,-0.02792,-0.00643,0.01547,0.127936518332493
32485,"N",1.13200022320837,0.56615184122369,0.214890661702592,1.26656162992526,0.0560690620397793,0.0447711263749127,0.0447711263749127,0.0620242232722078,0.270391894326695,0.158056395326375,0.218806505203247,0.287522614002228,4.58015267176069e-07,-0.03669,-0.00485,0.01902,0.114153096058708
11159,"N",1.13520725117076,0.884383168439703,0.782536057489574,1.02965758314448,0.0457391483946519,0.0228141563518817,0.0228141563518817,0.045812299730012,0.256733232364058,0.152222820851803,0.182795703411102,0.286738365888596,-5.71428571427545e-07,-0.0222675,-0.002485,0.0182425,0.109609659350156
34536,"N",2.81563676875301,3.23133576332672,1.52993979680621,3.53838803862453,0.0726797284064404,0.0268737698851115,0.0268737698851115,0.0827174179038971,0.156267969625759,0.156449174053487,0.0851063802838326,0.162234038114548,3.60360360360304e-07,-0.031295,0.00276,0.025525,0.115899727507154
63765,"N",3.26070437952245,3.0038762704624,2.40393001169992,3.75834664476099,0.0766930198314321,0.0326919364214258,0.0326919364214258,0.0683405643521307,0.535299426365283,0.172320530894302,0.417883217334747,0.642335772514343,5.37634408603252e-07,-0.01742,-0.00418,0.01765,0.111628505041281
26044,"N",1.13746031839852,0.765339607155747,0.351048945549394,0.921292385136743,0.0550311978467339,0.0413763669077084,0.0413763669077084,0.0638596404467496,0.172552166537692,0.195949660374067,0.0533707849681377,0.182584270834923,9.52380952368882e-08,-0.03714,-0.00232,0.03073,0.131805261797437
72349,"N",0.531132045633679,0.213802382855173,0.148699237586463,0.380817419096204,0.0323593214806155,0.0236174154397256,0.0236174154397256,0.0387736774732143,0.161617768550347,0.208813762018686,0.0596330277621746,0.151376143097878,-2.970297029705e-07,-0.02544,-0.0016,0.01631,0.150612700762289
20960,"N",0.484462807101237,0.0846448358595122,0.0318580832257532,0.367489140245995,0.0388168577539132,0.0365798325826944,0.0365798325826944,0.0532540503775575,0.645766479683653,0.182582031421234,0.607142850756645,0.764172315597534,3.77358490566206e-07,-0.0292075,0.00792,0.0555375,0.119771742123444
2622,"N",1.31302604238611,1.28129188940958,1.2136312008966,1.3949543686449,0.0462107677681555,0.0168509268236032,0.0168509268236032,0.0477027250383658,0.248300188497917,0.171087959591677,0.136792451143265,0.297169804573059,9.00900900905275e-08,-0.04126,7e-04,0.04547,0.10903515721167
2435,"N",1.19613912831182,0.529651641845703,0.160900115966797,1.87105941772461,0.0629078846381867,0.0554242273217569,0.0554242273217569,0.0713603551399612,0.160906854025815,0.204585928715623,0.0676691755652428,0.137844607234001,-4.58715596330867e-07,-0.04988,-0.00673,0.0317,0.166777623334661
11276,"N",5.14098599787836,5.45612394609043,4.91161462300384,5.77429674924446,0.112531856188074,0.0661851889455564,0.0661851889455564,0.11974973517935,0.355860510337962,0.116391503404099,0.325144499540329,0.358381509780884,-3.64963503649571e-07,-0.01505,0.00036,0.01244,0.0948945076930535
63813,"N",0.613166912311873,0.231490360589324,0.1243164242789,0.428694036519832,0.0355327244193189,0.0300819780216525,0.0300819780216525,0.0396265985240898,0.285806462380894,0.194954317277069,0.140929535031319,0.354572713375092,1.26582278480141e-07,-0.023895,0,0.020435,0.122636589548705
21429,"N",0.764245945195172,0.240952689384835,0.0923643645269072,0.426965063286738,0.0463842649640339,0.0391947989698342,0.0391947989698342,0.0588209546126696,0.466911762583186,0.167956371737187,0.402205877006054,0.497794106602669,-3.75000000001603e-07,-0.02199,-0.00171,0.02659,0.149798845396539
63549,"N",0.866178513285105,0.529272701721894,0.374524014022134,0.597284831924156,0.048113628471213,0.0344039504499821,0.0344039504499821,0.0579560347756241,0.252394915948801,0.209382867666947,0.126881722360849,0.259139776229858,1.01010101010031e-07,-0.034755,-0.00439,0.01501,0.125516596280438
5112,"N",2.36096444770937,1.96864776940909,1.79519255828735,2.99018905216198,0.0671157538407806,0.0274105100595952,0.0274105100595952,0.0870025277671211,0.162813299512491,0.212422987601309,0.0664961636066437,0.136189259588718,3.99999999998829e-07,-0.0216,-0.00057,0.0215775,0.176587933587568
56986,"N",0.663047713505217,0.33574878010485,0.262333274348503,0.36885633611865,0.0442830629984092,0.0370664152513106,0.0370664152513106,0.0545156465378273,0.324013301362403,0.165458364360325,0.256825931370258,0.337883949279785,-1.0256410256419e-06,-0.0220825,-0.002805,0.025565,0.145701860059879
26557,"N",0.690864268304107,0.386981768397283,0.239708083115763,0.800871678609684,0.0586890383821113,0.049580088241095,0.049580088241095,0.0724645942092397,0.239245019124863,0.157526833762765,0.175257727503777,0.278350502252579,1.50375939849523e-07,-0.02873,0.00282,0.03685,0.12335938782731
20816,"N",0.608048957035908,0.167789224375276,0.0625711659710112,1.03435990164275,0.0406763770195918,0.0308878126887037,0.0308878126887037,0.0524459928801941,0.45807738268505,0.136733493709891,0.407339453697205,0.483486235141754,1.73913043478593e-07,-0.021595,-0.0042,0.01573,0.118712284411281
30536,"N",0.348054337885613,0.0692993034446067,0.0395958082104821,0.244055879329725,0.0298490040571263,0.0280119087948944,0.0280119087948944,0.0398883828097441,0.289181821373285,0.114883344908373,0.247960850596428,0.295269161462784,1.34228187919221e-07,-0.01009,-0.00117,0.00957,0.092720827575028
45370,"N",1.81953094709366,1.60092811515313,1.50369544110739,1.91100788448511,0.0538871860883929,0.0180151129775008,0.0180151129775008,0.0429018049240808,0.151634275540709,0.165782248908222,0.0795053020119667,0.143992934376001,-1.87499999999196e-07,-0.0324375,-0.0017,0.025,0.129634440991426
64014,"N",0.946285133647458,0.873020735925037,0.691002392195919,1.06980646487381,0.0526612876161534,0.0402358560760196,0.0402358560760196,0.0542200453284676,0.177850231245073,0.144271813461971,0.10530973598361,0.183185838162899,1.75438596491377e-07,-0.03385,-0.00062,0.029015,0.0999492922876024
12334,"N",3.85073282832145,3.74070839500576,3.0549914359477,4.38188413403234,0.0880045964918579,0.0362171672732766,0.0362171672732766,0.109346259900754,0.114692378619855,0.182075350695367,0.0515151508152485,0.0939393937587738,-4.0404040404149e-07,-0.018375,-0.002,0.014085,0.128798468031192
69353,"N",0.502831551689062,0.191826278411778,0.107369173723169,0.334111793510173,0.0345800815013424,0.027869228179343,0.027869228179343,0.0411128719706247,0.292770042140601,0.1619502346875,0.238738745450974,0.358108103275299,3.03030303030481e-07,-0.035215,0.00152,0.017735,0.112778746337319
17746,"N",1.17014503191637,0.872884620336548,0.701969426535122,1.08772281230304,0.0589021197917025,0.0475737105033444,0.0475737105033444,0.0645713251721513,0.441633596760637,0.168569579963629,0.402777776122093,0.490226343274117,8.92857142845839e-08,-0.0394725,-0.00353,0.04004,0.153939318924058
40896,"N",3.71752588706162,3.92796330321519,2.88634825911364,4.22488463429851,0.085906897838946,0.0403384193503486,0.0403384193503486,0.110783549879004,0.409193146591767,0.150287723926163,0.334928244352341,0.454545468091965,8.54700854704478e-08,-0.04778,-0.00469,0.05033,0.106322001011694
68602,"N",0.695848070509812,0.219146821064121,0.0402963832262785,0.458508962059412,0.0440622227555063,0.0362580964123666,0.0362580964123666,0.058728742001697,0.384566497537169,0.155716544666244,0.260135143995285,0.452702701091766,-9.90099009910455e-08,-0.02061,-0.00252,0.01934,0.100630549581079
4695,"N",0.401359982850495,0.0346273246630701,0.00899330090475552,0.350063638579686,0.0352667335084939,0.0340927479518787,0.0340927479518787,0.0506088766464089,0.344407703491977,0.177334743288079,0.292237430810928,0.414383560419083,-5.15608393443017e-19,-0.02326,0.00473,0.038705,0.11260488917057
65854,"N",1.75110888687558,1.49410521627043,1.04160468083469,2.11715470627396,0.0616021208018345,0.0366519741861833,0.0366519741861833,0.0627073514843808,0.180608610439143,0.147883316678348,0.115021008998156,0.178571432828903,-2.50516411066726e-19,-0.049365,-0.007365,0.028425,0.141447724160656
34462,"N",0.837845575860152,0.292243778631859,0.116823221081893,0.510550576661274,0.0493122860008859,0.0411686865350069,0.0411686865350069,0.0643683310417324,0.117116605820085,0.168876904658383,0.0344827584922314,0.115660918876529,6.57894736846505e-08,-0.02478,0.00477,0.038485,0.139941927768906
44818,"N",1.56900157705595,0.779188087483059,0.622312743018299,1.76385462932545,0.0665705441021422,0.046882977284081,0.046882977284081,0.0814155356575169,0.325963446307321,0.12499825245885,0.287758350372314,0.324324309825897,1.55038759690031e-07,-0.02702,-0.00435,0.01319,0.108074460782431
34591,"N",0.25599323589697,0.0607673455979391,0.0375999977528294,0.115037122750968,0.0402068726681818,0.0393151645427052,0.0393151645427052,0.0468797422911182,0.139411264961712,0.2124632163734,0.0493762996047735,0.11902286671102,-1.13636363637784e-07,-0.0508625,-0.004085,0.016375,0.173859310214503
31322,"N",1.32457668867826,0.902982803848865,0.493918678891905,1.89013233398278,0.0577521601783479,0.0338164137006067,0.0338164137006067,0.0665033779524777,0.137119185529713,0.162584079597078,0.0736196339130402,0.12269938737154,-4.27350427349972e-07,-0.0544,-0.01529,0.02504,0.134895091040722
6502,"N",1.84177094315025,1.65732696202501,1.49618652542229,1.88881399191676,0.0556930280310937,0.0211754367053287,0.0211754367053287,0.0506313941846113,0.167364531867206,0.207068080837664,0.0689655169844627,0.145320191979408,3.99999999999129e-07,-0.012065,0.00334,0.01913,0.174220951284583
49339,"N",10.0942217633576,9.83958732626149,9.50925544727275,11.2325395289817,0.13410949397827,0.0541876417241694,0.0541876417241694,0.136284322524702,0.696131643673328,0.165880187461207,0.628930807113647,0.803459092974663,6.84931506847377e-08,-0.0321975,0.00596,0.0488,0.111543019760255
30402,"N",2.80851232188819,2.46089807232155,1.94733451508872,3.05201191569277,0.0725103635554765,0.033751815399565,0.033751815399565,0.0721345517822525,0.204849173249283,0.152393700657067,0.125984251499176,0.212106302380562,6.33802816901337e-07,-0.0319125,-0.001465,0.0211625,0.119718100021029
68446,"N",0.572774456089296,0.246769504918442,0.207867541842951,0.464692751167736,0.035027804260657,0.0249917607938921,0.0249917607938921,0.0418982137668301,0.214611801482818,0.173996949777277,0.141071423888206,0.221428573131561,1.73913043477789e-07,-0.072865,-0.01512,0.030125,0.135223390870685
22363,"N",0.858648927336992,0.21846422473506,0.135051533335987,0.465926840997457,0.0501457227840765,0.044064390089907,0.044064390089907,0.0674746430139164,0.0908700903981096,0.163180788315531,0.0347490347921848,0.0868725888431072,-3.03030303029925e-07,-0.02914,-0.00177,0.01524,0.126021126196628
40837,"N",1.94499326929379,1.80256982406189,1.54044386454078,2.29661493512999,0.0559749744253825,0.0195516139999266,0.0195516139999266,0.061414080740554,0.142946215715773,0.154597770912812,0.0589622631669045,0.144654095172882,8.62068965519585e-08,-0.0322375,0.003555,0.01741,0.139980136165322
27221,"N",2.02365899476848,2.33198022025309,0.898458224329865,2.60627747239159,0.0645176681018106,0.0312046565584497,0.0312046565584497,0.0682265993306991,0.210132458502902,0.175280179261611,0.132978722453117,0.228058513253927,1.96078431372799e-07,-0.02143,-0.00062,0.02486,0.137422440498037
23652,"N",0.661056681825778,0.67266802987485,0.242519707531401,0.975308628530058,0.0419754081477322,0.0331286040187078,0.0331286040187078,0.0450192431438307,0.159248928239028,0.196427011774703,0.077067669481039,0.13847117498517,1.6129032257904e-07,-0.0266275,-0.00225,0.0228475,0.160994988055019
15296,"N",2.42358370787717,2.71322654213544,1.06917341351524,3.06158254203508,0.0682320816803373,0.0282081191428823,0.0282081191428823,0.0768531133103403,0.371686838184283,0.156111086550284,0.266393452882767,0.4426229596138,-1.86915887850231e-07,-0.0517,-0.00805,0.03676,0.119333366041976
10191,"N",0.5751509730057,0.212428990243624,0.166076102851701,0.501914396827493,0.0349486308919733,0.0258244598001406,0.0258244598001406,0.0412901313201783,0.173885921363465,0.17252562943714,0.101307190954685,0.169934645295143,-7.46128222337752e-19,-0.0278975,0.00165,0.02588,0.129198554057862
61595,"N",1.25611904092506,0.822434823580157,0.261833641401714,1.40467865422321,0.0580217120450867,0.0393678337902486,0.0393678337902486,0.0666027423767689,0.309364022354239,0.168637187857525,0.201465204358101,0.333333343267441,-2.64897240399284e-19,-0.02414,0.00077,0.01627,0.134692987111531
62653,"N",0.86595445969853,0.311089698727549,0.232773295543246,0.572781098881805,0.0528772592063602,0.0474743939866176,0.0474743939866176,0.070304767009728,0.286306043184902,0.161205108009796,0.236111104488373,0.34490741789341,-2.105263157891e-07,-0.029065,0.0053,0.03934,0.11949191860842
56286,"N",0.975245368541653,0.570845568756549,0.0718359401927023,1.99783144103916,0.0580712685434129,0.0454931495105103,0.0454931495105103,0.0609203683259329,0.72695651948452,0.174625176192066,0.718918919563293,0.810810804367065,4.34782608696665e-07,-0.02226,0.00488,0.037935,0.133852189749315
45728,"N",1.97929616875291,1.83225512064141,0.903220823338686,2.45228114243991,0.0710041516047092,0.0410235138271665,0.0410235138271665,0.0858018280034048,0.299825403929271,0.117306550546903,0.259493678808212,0.300632923841476,-6.89655172411334e-08,-0.01342,-0.00418,0.00564,0.0990154591710624
37799,"N",3.57515746374749,3.32811286215399,2.98766754309632,3.93872344985351,0.103241406059365,0.0725011947948435,0.0725011947948435,0.107155525810899,0.31536606343158,0.18143209763719,0.242171183228493,0.359603337943554,8.62068965512333e-08,-0.060655,-0.005025,0.0450725,0.161861904127619
12467,"N",1.10172094345049,0.911526196450624,0.610743946140823,0.967615312426981,0.0505417248601634,0.0342144849966023,0.0342144849966023,0.0617117352752233,0.208989650509985,0.165125553895148,0.154875710606575,0.21223708987236,3.17460317460502e-07,-0.0362975,0.000305,0.0363225,0.122858995307216
70345,"N",0.642278544122185,0.183863545034118,0.0302464055471589,0.654868473235775,0.0452113177712326,0.039579162569264,0.039579162569264,0.0592184297358208,0.165154616131859,0.152996704771699,0.0842490866780281,0.167124547064304,-5.23255813953541e-07,-0.035665,-0.001385,0.027555,0.119548694452673
48129,"N",1.10390700131629,0.702379723932073,0.305818318425621,2.07644935045093,0.0461796067507411,0.0342984557159362,0.0342984557159362,0.0504948331147809,0.0999063438617847,0.138778666478172,0.0466751903295517,0.0971866995096207,4.92957746478891e-07,-0.020715,-0.002605,0.021185,0.114080023228238
23172,"N",3.73910185842577,3.88480489371187,2.77503418033834,4.45713196998792,0.086991499841648,0.0420532430512326,0.0420532430512326,0.108021913394688,0.439508603532103,0.163274588997427,0.369973182678223,0.482573732733727,-3.79746835443442e-07,-0.03428,0.00191,0.022785,0.121372064282995
19230,"N",0.754345020540193,0.412101983298062,0.358103546150548,0.462942259985873,0.0476829929985505,0.0344780870181691,0.0344780870181691,0.0631862536341502,0.144791326305845,0.144824996683765,0.0869565233588219,0.14906832575798,-2.6315789473745e-07,-0.053285,-0.009255,0.0151525,0.137183401421578
31542,"N",0.78132482579505,0.245295857789956,0.0859750577141085,0.500173799965897,0.0470619274776883,0.0400367422359011,0.0400367422359011,0.0605664623792028,0.187285396021486,0.14895240284594,0.138047143816948,0.198653191328049,-9.90099009904471e-08,-0.00972,-0.00091,0.0136,0.118190544947513
54047,"N",1.03880425045681,0.486992637133754,0.404139385948342,1.17530858844586,0.052013663524259,0.0380420387989715,0.0380420387989715,0.0617974764704142,0.209354748638968,0.196054078979189,0.102564102038741,0.231755424290895,-1.19047619047248e-07,-0.030505,0.009715,0.0488025,0.134461863034948
21268,"N",2.2927478179242,2.03989662402269,1.44895402397957,2.50150211809015,0.0744915154676757,0.0476168689566107,0.0476168689566107,0.0836627606327176,0.453732623473594,0.167302342671669,0.382047474384308,0.496290802955627,2.63157894736933e-07,-0.03379,9.5e-05,0.040445,0.142132994461513
4798,"N",1.41039445567133,1.15026677376523,0.991882298549045,1.35956032670427,0.0493704514867035,0.0219801619183583,0.0219801619183583,0.0564800902465539,0.115666261964799,0.147231988188759,0.0638977661728859,0.108626201748848,-1.8407036227475e-19,-0.04526,-0.00994,0.01865,0.114075836805421
29745,"N",2.71333459854921,2.59006706553629,2.23813895761287,3.07596261622408,0.0696557677478105,0.0275168154259102,0.0275168154259102,0.0936726663111476,0.153777089249343,0.176458564072611,0.0835913307964802,0.157894730567932,-3.99999999998321e-07,-0.04213,-0.003075,0.01536,0.142076270418966
20874,"N",0.854825811502224,0.368123026614114,0.28904382617926,0.49497658615417,0.0537091047678434,0.0409558657205712,0.0409558657205712,0.0703549971333143,0.290619731632662,0.205849415493567,0.157786890864372,0.347336068749428,1.57963114407113e-18,-0.07954,-0.00361,0.041845,0.175074828422506
70809,"N",2.90606504544426,3.00171433245878,2.11028793762075,3.38020439014745,0.0769209532132116,0.0401541271133553,0.0401541271133553,0.0527121132256999,0.259675730514347,0.175600607574316,0.172161176800728,0.267399281263351,5.46205080742555e-19,-0.07041,-0.02617,0.04902,0.145406059208987
54361,"N",3.32808552617612,3.11686706542969,2.90846633911133,3.77227783203125,0.0777063989535543,0.0342806484913873,0.0342806484913873,0.0817733197220672,0.208049451081584,0.188184262556334,0.131428569555283,0.218571424484253,1.87989189186008e-18,-0.04398,-0.002245,0.0317175,0.15091773188747
67906,"N",0.570753530309914,0.189233905331116,0.1614547614818,0.396215757002915,0.0361617497378427,0.0305648647448745,0.0305648647448745,0.0433370804613353,0.21765785881936,0.172788610670416,0.132450327277184,0.231788083910942,-9.90099009900421e-08,-0.0145,0.00236,0.01669,0.131386747760153
70318,"N",0.321080672129773,0.171687921851733,0.0227143952546145,0.48740585025807,0.0331727655290394,0.0239919327431997,0.0239919327431997,0.0415716132258916,0.236935687616908,0.182847393020312,0.140077814459801,0.276264578104019,3.22580645160683e-07,-0.03511,0.00055,0.01959,0.13558268299913
34617,"N",0.986643175440231,0.477251685186554,0.188880877609526,0.876849320653138,0.0575228599691001,0.0483757775779577,0.0483757775779577,0.0618796756596807,0.515378698396186,0.239943881621726,0.299307949841022,0.719723165035248,-5.99322867568376e-19,-0.0097,0.003515,0.01131,0.0877046441187695
65591,"N",1.74255239384321,1.491121039766,1.3249177255443,1.94487363496915,0.0531520869572676,0.020844326051594,0.020844326051594,0.0641166291342004,0.749839588686406,0.199241760397334,0.722388088703155,0.840298503637314,1.86915887850735e-07,-0.02181,0.00232,0.06067,0.131518833718241
46804,"N",0.81355451586908,0.214861725379127,0.142258651869112,0.490577988685553,0.0473273802546817,0.0408142440466183,0.0408142440466183,0.062630857828988,0.337163840359362,0.128022096492607,0.303462326526642,0.35641548037529,1.45985401460475e-07,-0.0254,-4e-05,0.02165,0.0971140509157797
3984,"N",0.62568042220544,0.46251159361051,0.226328566839763,0.664824797530949,0.0339537386964434,0.0198105547742805,0.0198105547742805,0.0329444820999567,0.142330009768688,0.182694887727809,0.0519125685095787,0.144808739423752,1.03092783505551e-07,-0.03138,-0.00131,0.00944,0.142820252192914
25012,"N",1.35691663829795,1.24135104030275,0.846966906929142,1.45880477512899,0.0613100995255851,0.0400327339903901,0.0400327339903901,0.102180957206731,0.0995317470968554,0.163278689205478,0.0427046269178391,0.0871886126697063,-4.47361037680272e-20,-0.01664,-0.00367,0.02246,0.119929366774338
53980,"N",0.822853452306423,0.499846870435074,0.385263941132091,0.649656438698592,0.0490138000179327,0.0365591901676246,0.0365591901676246,0.0619856601324439,0.615332430367594,0.166099713619164,0.558441579341888,0.688311696052551,2.98507462686846e-07,-0.038175,0.00083,0.0318075,0.11229120648584
47173,"N",1.66918137702313,1.35795759865066,0.918232544039142,1.70261991469362,0.0610405465490657,0.0368449696041323,0.0368449696041323,0.0686997575798915,0.224218846747785,0.170768111773361,0.151565074920654,0.23558484017849,-2.86625278446414e-19,-0.04484,0.00399,0.03008,0.123591979492665
48750,"N",4.13529853463887,4.36862284958097,3.25271182052867,4.72793068051139,0.0834721556280914,0.0296481831659744,0.0296481831659744,0.0832914283402076,0.179659865094083,0.129611476404166,0.0982142873108387,0.226190477609634,-2.88026051422006e-20,-0.01478,0.00092,0.016555,0.0707578061897174
10723,"N",0.86506718231805,0.33100303864518,0.210185604836581,0.491750590808965,0.0548664748626478,0.0466591998238862,0.0466591998238862,0.0722879069456432,0.320389890727857,0.168253543773865,0.231299206614494,0.346456706523895,-4.39637423268442e-19,-0.0616175,0.000625,0.043035,0.12017458678499
25677,"N",1.23028183611506,0.667561945695385,0.222402595117061,1.46624558067839,0.059196469739705,0.0472127494143778,0.0472127494143778,0.0672435662634382,0.343961350992322,0.119754643345729,0.311844080686569,0.347826093435287,4.44444444444195e-07,-0.014935,-0.00157,0.01259,0.101178600628661
43396,"N",6.76865955408523,6.46270786797,3.88324529726662,9.64914919275275,0.121312570291708,0.0613671136496528,0.0613671136496528,0.117262596343914,0.305221615776501,0.106762254329538,0.274074077606201,0.304629623889923,-3.27868852459121e-07,-0.015215,0.00031,0.016755,0.0853470954648576
20414,"N",2.45228643864731,2.45612561901553,2.09986926428702,2.99898248755573,0.0714339658821896,0.0397377271292211,0.0397377271292211,0.0836932317586812,0.108677483996195,0.166735735872094,0.0388888902962208,0.0944444462656975,1.76991150442552e-07,-0.05636,-0.00502,0.01286,0.139051033141885
28700,"N",0.802579634242135,0.590365521648108,0.248737659736944,1.33310026302252,0.0424859153623185,0.0333508830721568,0.0333508830721568,0.0415115612799041,0.235304313665256,0.197921517144851,0.1028505358845,0.305084750056267,5.00000000000223e-07,-0.026075,-0.00245,0.025865,0.148506959065513
47485,"N",1.88203362930858,1.58625072427005,1.33119606237788,2.20844148014058,0.0628267315889849,0.0298709554898476,0.0298709554898476,0.0639026816164244,0.34387088147532,0.123703408503139,0.311688303947449,0.348484858870506,1.68067226890966e-07,-0.015965,-0.00216,0.012595,0.108131475951718
30160,"N",0.384949493497761,0.0399816343092503,0.0121120295490252,0.236391181720847,0.0343902568898967,0.0319481156184278,0.0319481156184278,0.0525597628769033,0.474190938472748,0.146440576054584,0.393203884363174,0.53398060798645,1.66666666667041e-07,-0.0512325,0.01415,0.062795,0.108802297043715
4749,"N",1.35036930754522,0.39038763458543,0.189588304640589,3.19993995148976,0.0629847628174702,0.0542665893710462,0.0542665893710462,0.0802931870431909,0.234921824572415,0.158812395436594,0.166459619998932,0.21645962074399,-8.62068965517176e-08,-0.0416575,-9e-05,0.016295,0.148672188454978
50124,"N",0.54645841211312,0.240350095889081,0.204650536797828,0.29808821963813,0.0352918148007959,0.028479649723571,0.028479649723571,0.0396131197803279,0.426322221514933,0.173937308798284,0.3560830950737,0.495548963546753,1.42216749778521e-18,-0.01125,-0.00024,0.02301,0.137276051729977
14426,"N",1.51636922649837,0.448217169876904,0.166657382806178,2.67810547766721,0.0744585563614109,0.0660234052506029,0.0660234052506029,0.0962654608193528,0.172539944167842,0.163726463172537,0.127272725105286,0.159999996423721,-1.8181818181875e-07,-0.01467,0,0.01863,0.123003842223713
8275,"N",2.39677213122397,2.15419805197451,1.95596138670674,2.97445583308463,0.0668768439539184,0.026618331064743,0.026618331064743,0.087271406607563,0.26761826669628,0.168700475815614,0.142857141792774,0.339768350124359,4.04040404040789e-07,-0.037665,-0.00477,0.014995,0.123304083740897
53634,"N",0.940339398135706,0.454470034196713,0.315968912442727,0.900862705465455,0.049112745286024,0.0356553115748228,0.0356553115748228,0.0591975788972707,0.154944382028236,0.204284995443666,0.0606223177164793,0.143240340054035,-5.10204081632267e-07,-0.057455,-0.0026,0.0184475,0.170376694200061
27772,"N",3.59757112681374,3.98037274698384,2.43887716168908,5.66110152388538,0.0894439807047762,0.0376805719080094,0.0376805719080094,0.108993057387787,0.523425744175911,0.150891162510035,0.436633668839931,0.603960394859314,1.0000000000008e-07,-0.0228625,-0.000655,0.023165,0.119139399215559
65028,"N",0.500539707305348,0.0934581196431568,0.0151790907734461,0.353710705484676,0.0404547969519455,0.0370014448342758,0.0370014448342758,0.0551214831390397,0.261354287127847,0.160211657058081,0.156779661774635,0.324152544140816,1.94174757281512e-07,-0.020745,-0.00049,0.02046,0.0608699095786973
32012,"N",1.05915427932058,0.641812591683588,0.536773718616851,1.13879263423944,0.0505140498355092,0.0346912792381643,0.0346912792381643,0.0596268389754213,0.227342994958162,0.165563234768556,0.169082120060921,0.228260867297649,-9.99999999997161e-08,-0.027255,0.001625,0.0250775,0.126192903100449
3231,"N",8.72845628523632,8.18928722350046,7.42096091046582,10.2688435453309,0.127056419887091,0.051883457224612,0.051883457224612,0.141358112261136,0.184752186683496,0.180871185713947,0.0893470793962479,0.192439869046211,3.09278350515541e-07,-0.02387,-0.00528,0.01059,0.116964697874451
1850,"N",1.22876722423009,0.588496272066288,0.333425540566074,1.04804210672866,0.060937191245618,0.0555763589465031,0.0555763589465031,0.0794543406376924,0.259853965674825,0.206073126831067,0.166936784982681,0.306320905685425,1.06196271884647e-19,-0.01333,-0.00081,0.01102,0.052595065060802
68891,"N",1.34558299853379,0.949680640840839,0.669799236205182,2.25302764335282,0.0539622918849027,0.0332824167958064,0.0332824167958064,0.0622652439990495,0.47430408682142,0.134508108201848,0.401929259300232,0.498392283916473,-5.71428571431691e-08,-0.01679,-0.00281,0.02184,0.0792826014852728
528,"N",3.37782100715705,3.43236052611947,2.82632798494728,3.86851250122415,0.0775164184095622,0.0311322024053274,0.0311322024053274,0.0907787125653232,0.157172324231643,0.213688862120244,0.0667574927210808,0.119891010224819,3.73831775702132e-07,-0.084575,-0.00245,0.027725,0.18010472655697
72199,"N",1.02515158596011,0.44299059844465,0.33781225150402,0.726685975240777,0.0532577618536854,0.0461245694775204,0.0461245694775204,0.060882537136504,0.158119931568702,0.15874750186332,0.0897887349128723,0.149647891521454,-1.81818181818461e-07,-0.02309,-0.00128,0.02777,0.124079876498149
7759,"N",0.887852334449588,0.345079860570901,0.273271472296883,0.434907805164123,0.056151252458931,0.0443751196869309,0.0443751196869309,0.0745429943778002,0.22861305395379,0.191613932401216,0.128630712628365,0.283195033669472,-4.25531914893157e-07,-0.0377725,-0.00294,0.0485375,0.141230224634653
39264,"N",5.24683919588593,5.54646709305763,5.02090494809214,5.91344873944719,0.115552455756667,0.0692184558568016,0.0692184558568016,0.120833672868773,0.479022754177655,0.176539426307446,0.407407402992249,0.524216532707214,-5.47945205479916e-07,-0.01674,-0.00142,0.02541,0.138429997360182
70142,"N",3.23041236436826,3.04922666850426,2.42694066862671,3.77984715270074,0.0816918143535222,0.0355675016817354,0.0355675016817354,0.102221736004135,0.323166792039518,0.127180416710973,0.278523504734039,0.352348998188972,-4.59975374357088e-19,-0.024,-0.00342,0.01778,0.0815047293472603
3649,"N",1.7851168939417,1.53433992080296,1.37780426247668,2.09380009092123,0.0577148919566005,0.0251449094978564,0.0251449094978564,0.0711300405069062,0.43783568047795,0.178172558431042,0.362951815128326,0.506024107336998,-1.2048192771082e-07,-0.019585,-0.00033,0.022675,0.136545901203043
47756,"N",2.00791965024872,1.67821363135357,1.5536354232058,2.66199918952234,0.0612212884987825,0.0244803616452972,0.0244803616452972,0.0793942018127091,0.7486958451826,0.192683295854808,0.705128192901611,0.85897433757782,-5.11002145687618e-19,-0.01604,0.00214,0.03194,0.114834642687262
55247,"N",1.69663782659933,1.22733174940119,1.03611708678451,2.61087671296305,0.0629188554480315,0.0350029122900693,0.0350029122900693,0.0547605905961563,0.318297695243519,0.156843097192298,0.236434102058411,0.337209314107895,6.71140939605033e-08,-0.02851,-0.00249,0.02183,0.122068373178317
27098,"N",1.66913591489653,1.61984605440211,1.10964426202429,2.4371513665927,0.0658731283383284,0.0456440614528011,0.0456440614528011,0.0670916991322026,0.275886695509351,0.148815787915863,0.232300877571106,0.261061936616898,-2.36220472441015e-07,-0.023015,0.0012,0.023705,0.115088303768148
46318,"N",0.993423248987267,0.565871678779638,0.460081661484456,0.986512101980357,0.0490939236172422,0.03306393079346,0.03306393079346,0.0595992556387047,0.364766716552933,0.160999523827874,0.255230128765106,0.463389128446579,-5.66037735848227e-07,-0.0527925,-0.00604,0.04445,0.128847244993961
64748,"N",0.435316048488032,0.0332787436894379,0.0139063857912418,0.494859465062881,0.0379046871079756,0.0379902561005047,0.0379902561005047,0.0509215057725096,0.238668198189275,0.214924481816663,0.0878851562738419,0.32177872210741,1.5151515151662e-07,-0.09748,-0.00573,0.0096675,0.185197159327711
32710,"N",0.865818329919112,0.461495560815096,0.262172078252985,0.480698783597431,0.0495587208488422,0.0372998131879411,0.0372998131879411,0.0620304571581831,0.272213282882038,0.189564861866488,0.189159296452999,0.311946898698807,-1.01010101010304e-07,-0.02261,-0.00348,0.009635,0.127320866498418
12791,"N",0.891548142613272,0.285866725266024,0.12317143210285,0.48653841372263,0.0491432568941937,0.0405465346021508,0.0405465346021508,0.0607794545095477,0.176730941053701,0.185267836839071,0.0678137671202421,0.170040488243103,-1.69491525423393e-07,-0.04274,0.002005,0.0270325,0.138092959851887
32795,"N",2.45267620249792,2.19379671140563,1.97404163994998,2.83458120945368,0.0724996440339539,0.0359168738767959,0.0359168738767959,0.0855453388810304,0.170507693610021,0.212318555680731,0.0737913474440575,0.142493635416031,-2.85714285712575e-07,-0.02519,-0.00209,0.01266,0.15406573102998
6987,"N",1.05310023200383,0.890161930927906,0.655307694688514,1.11385365529563,0.0488885459325465,0.0285637570524759,0.0285637570524759,0.0646590339811178,0.358817202830186,0.167638937129091,0.296666651964188,0.393333345651627,1.07526881720758e-07,-0.01439,0.00177,0.01388,0.123551626284711
21086,"N",0.369732979530031,0.0707636970036649,0.0512583641436163,0.228849983213184,0.0300566304129308,0.0284265983931087,0.0284265983931087,0.0388778542278781,0.227642367574675,0.146149984760498,0.133550494909286,0.271986961364746,-4.82758620689254e-07,-0.03689,-0.00149,0.01846,0.0968631267299596
37208,"N",0.641976391181794,0.363392100208867,0.275142518994091,0.770005942778209,0.0369444611377399,0.0267292825118648,0.0267292825118648,0.03901492253567,0.168681116758165,0.185497062496488,0.0751173719763756,0.178403750061989,7.09219858155572e-08,-0.03193,0.00143,0.0255,0.122053582878858
60423,"N",2.67625271270323,2.75972679673568,2.12320517099045,3.04192418839019,0.0672954338260836,0.024968855662557,0.024968855662557,0.0730164496708658,0.346751093909714,0.249872355067477,0.171641793102026,0.41316145658493,1.65641998574174e-20,-0.016795,0.00107,0.021985,0.123277262801961
23228,"N",0.378246790458289,0.112060443704301,0.0810062194725144,0.235649774076753,0.0309366945492254,0.0283287362788635,0.0283287362788635,0.040225857708316,0.553695953002682,0.201880135360202,0.382845185697079,0.694560647010803,1.85185185186376e-07,-0.0768825,0.001555,0.09444,0.158716654242481
7807,"N",3.67460878762729,3.80714464670187,3.12965143077178,4.07591275723771,0.0842177402203095,0.03953753340364,0.03953753340364,0.110357275602892,0.10627842778455,0.15537746601794,0.039473682641983,0.108552634716034,7.46894829934459e-19,-0.0565275,-0.006115,0.031195,0.133160867561343
17427,"N",1.0588978901626,1.09827069336119,0.541167954117964,1.39458576539595,0.0569320117137122,0.0488815887536827,0.0488815887536827,0.0643389439828734,0.311866432450019,0.215855995696506,0.187179490923882,0.404487185180187,1.1627906976772e-07,-0.0186525,-0.001215,0.03344,0.0799178069606398
13763,"N",9.25528392966927,8.73997783980027,8.03544126581572,11.0256282758711,0.142743330967295,0.0766384298972475,0.0766384298972475,0.157182445330789,0.199150942687718,0.165953279185745,0.129999995231628,0.193500004708767,1.88679245282246e-07,-0.045285,-0.00679,0.0290075,0.147594527153544
24056,"N",0.812772065585714,0.151021509469651,0.106801082883775,2.1288706463173,0.051379323584816,0.0478799304816002,0.0478799304816002,0.0622618439026779,0.279648183284931,0.148418795063354,0.237068966031075,0.335129298269749,-2.70270270270256e-07,-0.03997,-0.003035,0.0350925,0.12577924634408
3642,"N",3.09289070180002,2.78740999705646,2.51941649720578,3.42725233719941,0.0880979675256997,0.0543231259946455,0.0543231259946455,0.104484715024526,0.56202282547725,0.168586474777677,0.543506518006325,0.62922078371048,7.57575757574785e-07,-0.0416275,-0.00142,0.0269925,0.10343546355557
42348,"N",2.8957822087058,2.93482823415075,2.23781209722134,3.28835926321395,0.074604486251714,0.0344615922015867,0.0344615922015867,0.0985722786297266,0.313539997980881,0.22212995478914,0.2213114798069,0.341334894299507,-5.26315789472238e-07,-0.058305,-0.00448,0.02166,0.135950910168779
17941,"N",0.367161324415215,0.0911077427414023,0.0402527684437497,0.23689696805827,0.030750776372795,0.0295311382737804,0.0295311382737804,0.04030020503487,0.126612518527187,0.150803935884922,0.0621118023991585,0.119565218687057,6.15384615385118e-07,-0.0717425,-0.01042,0.02405,0.145565581377566
2647,"N",0.624061753652142,0.520103545920513,0.327835088783892,0.812675211294919,0.0440722208025024,0.0332004757437731,0.0332004757437731,0.0476773655808434,0.115267372794677,0.177764367173424,0.0354430377483368,0.10632911324501,5.10204081631933e-07,-0.074185,-0.00345,0.01329,0.165083857262311
37023,"N",1.6619849120488,1.44195832257468,1.21977072361102,2.06566086811889,0.05674931023871,0.0248558201569766,0.0248558201569766,0.0752333690415508,0.174758164192905,0.154404112174028,0.0947136580944061,0.198237881064415,-3.09278350515376e-07,-0.04308,-0.00731,0.02568,0.110749609286873
22262,"N",0.454854376248023,0.167320219727272,0.103126123882201,0.343154868980428,0.0310541403777667,0.024228199454591,0.024228199454591,0.0380820186727745,0.686026689451959,0.199554526035051,0.627118647098541,0.817090407013893,-1.72413793102594e-07,-0.02421,0.00276,0.04523,0.120158601262504
3200,"N",0.625841516601482,0.289362650690179,0.092861275030048,0.486989825337072,0.0355653811719997,0.0255305777503964,0.0255305777503964,0.0410635692382587,0.725329130348088,0.195149098384312,0.667938947677612,0.838740468025208,-2.17391304348214e-07,-0.02054,0.005625,0.028745,0.110272385909225
42623,"N",3.04876379018013,3.09380569414817,2.30140981003784,3.49513515311319,0.0777806587778484,0.0361316377952478,0.0361316377952478,0.101763704788174,0.254685800338752,0.201145993367389,0.10333863273263,0.316375188529491,5.26315789473584e-07,-0.02444,-0.002265,0.0308525,0.155419973292965
34622,"N",3.29424689253194,3.56370616680356,2.38668619696426,3.90836903677719,0.0822149093691882,0.0379391156842113,0.0379391156842113,0.101631759629193,0.102082342847579,0.167064102855021,0.0377358496189117,0.100404310971498,-1.66669510436987e-18,-0.02462,-0.00229,0.0237125,0.14583343398997
16444,"N",0.957506811203851,0.305863536682757,0.210938236153566,0.584499305600749,0.0532829521370967,0.0458435149456272,0.0458435149456272,0.0655036177618788,0.382142857997678,0.177847233029683,0.28571429848671,0.412946440279484,-8.45974156070232e-20,-0.06916,0.005195,0.048835,0.130188023136029
58128,"N",0.402909232147247,0.0472744707456247,0.0137189554864877,0.285341717160788,0.0360500258878631,0.0347964158183084,0.0347964158183084,0.0515206227212058,0.181863965389762,0.196577275311073,0.053314121440053,0.206051871180534,-2.91262135923014e-07,-0.03041,-0.00181,0.02,0.129632998805575
42046,"N",1.01896572663645,0.939846073648357,0.59509279771216,1.26417836861057,0.050577489988291,0.0338593115527218,0.0338593115527218,0.0549271110721018,0.606425703268999,0.14252281926466,0.5391566157341,0.64759036898613,4.67836257310644e-07,-0.02454,0.00139,0.0284,0.0854610930039331
23405,"N",9.30730165119028,8.35972293027377,8.01913551036596,10.9147808595922,0.130114424668205,0.0543507522551535,0.0543507522551535,0.134270103611707,0.43286927957753,0.175876005977799,0.343328326940536,0.539730131626129,-9.5238095238257e-08,-0.03159,-0.0019,0.02788,0.13279316351361
52818,"N",2.05220858301107,1.87162677175894,1.55111261675059,2.62076078783084,0.0622462453302662,0.0254822048054293,0.0254822048054293,0.081570330001197,0.267087637781142,0.195483377966372,0.119776118546724,0.338059701025486,-1.2820512820494e-07,-0.0305725,-0.00721,0.023535,0.147530965268212
30827,"N",2.90383890947697,2.36804223346136,2.23335663437128,3.67405458619893,0.0775465677082293,0.0384236031061025,0.0384236031061025,0.0829883261053055,0.184671336399584,0.13306839348077,0.133593752980232,0.19140624627471,-8.69231052078896e-20,-0.0237575,-0.001255,0.01955,0.128424869791133
10729,"N",3.06560149775412,3.15570172589076,2.11483346666968,3.85863915837043,0.0745152934743403,0.0282995320299829,0.0282995320299829,0.0686388845217912,0.357937096919812,0.127157918751426,0.321804523468018,0.353383451700211,2.11267605634026e-07,-0.0295025,-0.00039,0.03377,0.119728501719802
42775,"N",0.494368026015524,0.141202625976003,0.118801320582856,0.17897737632728,0.0401438704268315,0.0349700699248529,0.0349700699248529,0.0508548296452366,0.214338234913371,0.217791530685704,0.0982142835855484,0.220982149243355,2.35294117645381e-07,-0.02121,0.00664,0.02989,0.133512740840006
47973,"N",0.966191360702393,0.679187076464243,0.273570375956736,0.833945784458081,0.0474848379654527,0.032800820358458,0.032800820358458,0.0526019971988961,0.247431044834991,0.20132806500745,0.149224802851677,0.268895357847214,1.16279069767559e-07,-0.01926,0.00144,0.0199925,0.120262167719912
41194,"N",0.729866837629401,0.25720000385046,0.0460749999216758,0.536024999143929,0.0463437738894622,0.0374056185038459,0.0374056185038459,0.0627570189479497,0.171941854126819,0.141246326227446,0.0958702079951763,0.175516225397587,9.00900900906597e-08,-0.02254,-0.00651,0.03106,0.11007449282187
70663,"N",1.83923443092672,1.64500500103851,1.45480339666653,2.01233150712404,0.0537661423815076,0.0199034197058547,0.0199034197058547,0.0643226881659931,0.234686995337231,0.153427760114165,0.17090068757534,0.244803696870804,8.84955752218069e-08,-0.04933,-0.0064,0.01527,0.132854181889498
10847,"N",3.30113366725622,2.87936992303847,2.56705773279607,4.09135104626322,0.0725487987939504,0.0249094971905902,0.0249094971905902,0.0888068435052438,0.145952471753929,0.198626646106126,0.0710382536053658,0.116803275421262,2.32558139535215e-07,-0.018045,-0.00382,0.0234,0.145477635936223
72410,"N",0.964904140619369,0.442244333440736,0.308695812409076,0.703298913364866,0.0558001789724135,0.0490968738239952,0.0490968738239952,0.0731207340105636,0.249351109903401,0.199518309789823,0.0947085879743099,0.326687127351761,2.5641025641021e-07,-0.03126,-0.00228,0.0301025,0.139671285375252
41488,"N",0.689925037812153,0.200402942081364,0.079079197485414,1.63680044536373,0.0417563458581295,0.0297165276039601,0.0297165276039601,0.0539833469276499,0.280307228500977,0.124800274339228,0.240589201450348,0.286415711045265,7.62763015780203e-19,-0.018795,-0.00347,0.019165,0.10369039400795
13239,"N",0.84184679692221,0.209187059704706,0.134163026480609,0.476022183198341,0.050456968922573,0.044915540516123,0.044915540516123,0.0674306854398046,0.264454732340743,0.19754381784185,0.0937500018626451,0.381250008940697,-6.48148148148449e-07,-0.0639375,-0.001805,0.0337675,0.145545496931874
11120,"N",5.65724403922506,4.96785363605471,4.28727396555896,5.95315444138908,0.100094735111941,0.0373093270332962,0.0373093270332962,0.11531579586558,0.376382876921332,0.140916996515632,0.31717686355114,0.397108837962151,1.01010101010378e-07,-0.02169,-0.00091,0.010685,0.116576759423758
58277,"N",0.583022393517327,0.144954867214679,0.0919983269574572,0.438786140119287,0.0364635609290081,0.0328623781758343,0.0328623781758343,0.0434106086511083,0.332318009014296,0.206034512412157,0.218527317047119,0.401425182819366,3.52941176470481e-07,-0.03033,-0.00509,0.01996,0.0744462035305498
22510,"N",0.850213787400893,0.267360809654469,0.138718084219662,1.67059173526088,0.0436276871479064,0.0268498685408978,0.0268498685408978,0.0479631761140751,0.359456168704977,0.129357491038256,0.323863632977009,0.362418830394745,-2.49999999999985e-07,-0.0321175,-0.003205,0.01319,0.122443772960946
53997,"N",3.32537300577926,3.04572666542038,2.66982231002228,3.96824436691918,0.0808709791251438,0.0370641484585738,0.0370641484585738,0.0936686302286585,0.276919302931487,0.147337722853452,0.203703701496124,0.329805999994278,6.62251655631295e-08,-0.02983,6e-04,0.01591,0.110939544638791
5751,"N",0.745805254006537,0.443968049228854,0.268214583448072,0.54825069264008,0.0482434353147087,0.034869848425618,0.034869848425618,0.0574507091430503,0.629173260461539,0.167392467785577,0.618670880794525,0.671281665563583,1.24999999999836e-07,-0.025355,-0.001525,0.018525,0.0686809396014727
16152,"N",2.98407217418646,3.25823337161613,2.11125644218495,3.52171519765991,0.0788074697973946,0.0398340584391144,0.0398340584391144,0.0990490627043778,0.165267335339671,0.170557229314178,0.0877192988991737,0.162280708551407,2.55600662163458e-19,-0.01676,-0.00049,0.01451,0.109147328617015
54151,"N",2.63565218987451,3.09935312635012,1.60429169694348,3.38432343875943,0.0719006093723394,0.0308502258955744,0.0308502258955744,0.0738556503702128,0.300795249540258,0.157466850400531,0.253565773367882,0.29160064458847,4.50450450449636e-07,-0.03382,0.00688,0.035765,0.133495057970408
32263,"N",1.39587576075564,1.28352450397288,0.996427653102946,1.94232535776819,0.0596967140007572,0.0431143376865775,0.0431143376865775,0.0611055050980894,0.398742324915958,0.153260004814771,0.377938523888588,0.440325498580933,-3.60360360360859e-07,-0.037785,0.00377,0.027125,0.121422768876711
40559,"N",0.467181114880766,0.150821343881508,0.0922038564622348,0.542449743890961,0.0362036930853863,0.0285879307813053,0.0285879307813053,0.0460063757910154,0.265024842452684,0.151886986984079,0.162698417901993,0.321428567171097,3.81679389312776e-07,-0.039615,-0.01276,0.01732,0.102763369449539
1936,"N",1.61472306328334,1.44639276783116,0.916967688582325,2.31468896686339,0.062296398619737,0.0436192779769772,0.0436192779769772,0.0685854469816215,0.166758308607724,0.195662487851784,0.0738636329770088,0.150568187236786,4.30107526880407e-07,-0.01226,5e-04,0.01503,0.150997457082777
57922,"N",1.86157167020596,1.43599422100818,1.31971968963031,1.79559509807598,0.0744381798738912,0.050125929653176,0.050125929653176,0.0900081825816516,0.119208967727092,0.16569053625256,0.0590717308223247,0.107594937086105,3.03030303029908e-07,-0.02176,-0.00306,0.016325,0.126524516406695
53252,"N",0.470281088080253,0.121721534472938,0.0636355095069005,0.353297246954269,0.0359201775709597,0.0319642257469313,0.0319642257469313,0.0481950689134228,0.261701194683176,0.205202184935779,0.158613450825214,0.289915978908539,8.13953488372757e-07,-0.016455,0.00142,0.0182375,0.116592776531523
21812,"N",0.600156603864884,0.17627813619038,0.0850676723605455,0.363893733774659,0.036445288484999,0.0299249623729887,0.0299249623729887,0.0449174921429742,0.215944561486443,0.169248144100439,0.144339628517628,0.205660372972488,9.25925925921469e-08,-0.0725125,-0.00336,0.0395875,0.149483981584846
51264,"N",5.17557240724074,5.30508158052263,4.06285868416457,6.12041486993108,0.0645724812768193,0.0327737734119249,0.0327737734119249,0.0621463422254659,0.123726133413301,0.151029101856735,0.0660377368330956,0.11132075637579,1.19760479041079e-07,-0.017855,-0.00334,0.011645,0.113164329770983
46364,"N",3.4181792418061,3.46852132708136,2.24170631062214,4.62298189146457,0.0954030455142776,0.0600682345499877,0.0600682345499877,0.0913325585906405,0.369589041256242,0.146785741021141,0.315753415226936,0.385616436600685,-2.22222222222567e-07,-0.02466,-0.00248,0.010345,0.140190888410084
21719,"N",0.70545093538916,0.31445878128306,0.259530602046571,0.430355133776066,0.0442282221033165,0.0370460347353418,0.0370460347353418,0.0592489120894517,0.106096857159789,0.179715687655703,0.0281329918652773,0.0895140692591667,1.20250826021939e-18,-0.01297,0.00087,0.01436,0.135784713121144
31513,"N",1.01135454784489,0.678117273247055,0.576895492090995,1.32702173790912,0.0509748947469907,0.0350349965293019,0.0350349965293019,0.0570221614669793,0.320565569278022,0.154988721373855,0.269396543502808,0.334770120680332,-2.27272727273401e-07,-0.0327125,-0.008735,0.0195325,0.146972136017223
26091,"N",0.622200819475984,0.381029275805726,0.226386743991985,0.556759825845427,0.0347527960247586,0.0224655732798998,0.0224655732798998,0.034365245820883,0.154442980847876,0.202955221260255,0.063146997243166,0.138716354966164,5.05050505048402e-07,-0.04373,-0.00292,0.013225,0.151881407007705
12727,"N",1.46527906248785,0.809499415032844,0.425560167199042,2.84468686914621,0.0788470892447571,0.0644619350739185,0.0644619350739185,0.0985810774722967,0.0981441440867881,0.138478551257934,0.0459459461271763,0.0939189214259386,1.99999999999603e-07,-0.0482775,-0.00263,0.0232075,0.12740819291068
887,"N",0.540131087826519,0.128875006444078,0.104286470010624,0.796206779264358,0.03756904369441,0.0326375399974579,0.0326375399974579,0.0442604662536568,0.158641130718238,0.205457464084088,0.0656976737082005,0.144767444580793,-9.80392156850532e-08,-0.0226875,-0.001435,0.012995,0.143507465286861
64138,"N",0.576098694629471,0.27330204966374,0.151295947565867,0.707307146500172,0.0380254268438853,0.0313863988273135,0.0313863988273135,0.0451959309403554,0.187839783538701,0.187533189258011,0.117924526333809,0.173938676714897,2.54237288135022e-07,-0.0319725,-0.004215,0.024195,0.167445462122462
44157,"N",0.727906640978539,0.503860560607836,0.20412070742755,0.652403740936214,0.0384181079302185,0.0248203778324194,0.0248203778324194,0.0412273865368397,0.458953047268401,0.173009610523531,0.439814805984497,0.516666650772095,-2.36220472440089e-07,-0.032705,-0.00388,0.041465,0.129928089167453
31234,"N",1.46751793517738,1.32586662690937,0.924356392068009,2.06795455999828,0.0602281330870322,0.0416063823933372,0.0416063823933372,0.065162022036318,0.332030933334539,0.125427012172034,0.299284584820271,0.34022256731987,-1.69491525424301e-07,-0.02467,-0.004685,0.0099325,0.121905866212685
37998,"N",1.37304613024765,0.532177438314839,0.323832009992344,0.79398885970213,0.0779668053388436,0.0685746368304724,0.0685746368304724,0.110917669604402,0.340306225171852,0.170866328546133,0.221276596188545,0.419148936867714,-9.3457943925525e-08,-0.06219,-0.01296,0.052835,0.124853689274538
61731,"N",2.16546861215203,1.80990395154675,1.65177458001234,2.46354974895267,0.0601676289077814,0.0233430028021347,0.0233430028021347,0.0681687408496405,0.39701322704721,0.147748520489167,0.344303786754608,0.425316452980041,2.24719101123114e-07,-0.01863,0,0.01425,0.121861926879055
31486,"N",0.50762957020387,0.115139484027031,0.0889620476383743,0.289811849116984,0.040622915101589,0.0385661586590789,0.0385661586590789,0.049222738191533,0.631226280223458,0.200149139812947,0.514705896377563,0.781250014901161,-1.61290322581431e-07,-0.053705,0.001035,0.0564175,0.10629844480261
47782,"N",0.830398629623516,0.267416001805306,0.124319999715611,0.614532018845559,0.0479150985261286,0.0408791888123788,0.0408791888123788,0.0603097337385961,0.121829332298342,0.16655725315813,0.0604982189834118,0.110320284962654,-1.06382978723507e-07,-0.0204775,-0.000625,0.0197525,0.146130035650935
56231,"N",1.59073313920719,0.714849734247343,0.537195571129165,1.0107932883217,0.0740295061206783,0.069470106034864,0.069470106034864,0.0973071604432675,0.449758807956069,0.157308109802062,0.377483457326889,0.5,-1.2345679012355e-07,-0.01871,-0.00114,0.02141,0.129810202396555
31797,"N",0.592082702405373,0.411351477918399,0.184442600290345,0.63556923293884,0.034235512152948,0.0218890799844239,0.0218890799844239,0.0343100549503818,0.127699568114699,0.173507368001115,0.0676691755652428,0.105263158679008,2.12765957447313e-07,-0.0217425,0.001025,0.01503,0.149564555379143
38582,"N",0.598366043010777,0.388883330794176,0.240863887452252,0.517277777133717,0.034991780552792,0.0226257332232475,0.0226257332232475,0.0378748395123905,0.205952891480777,0.149579359236453,0.138989165425301,0.199458487331867,-6.99300699305908e-08,-0.02034,0.00405,0.04779,0.106710464476865
33686,"N",1.73494840525958,1.33468512833815,0.758337026553686,1.70550599908289,0.068984301621154,0.0501707392155228,0.0501707392155228,0.0779782894187683,0.364986573246498,0.137164829176305,0.319148927927017,0.382978722453117,1.9417475728131e-07,-0.01773,-0.00349,0.013085,0.117319025478298
24522,"N",1.88082797875313,0.955054443513853,0.621778526266176,1.70043811019692,0.0810530993784102,0.0676293651436455,0.0676293651436455,0.110917928462612,0.251171954396385,0.186340872917783,0.126392763108015,0.297353759407997,-3.65853658536953e-07,-0.03148,-0.000305,0.013115,0.159095023313347
25501,"N",5.37093265122398,4.83342169196,4.17345207729932,5.51312270666114,0.0975214738355174,0.035827212963845,0.035827212963845,0.106754808326632,0.13517188636752,0.170136489028047,0.0729613751173019,0.133047208189964,4.95049504949961e-07,-0.02044,-0.00474,0.01334,0.134537715436053
2383,"N",0.672114291818658,0.458597131802875,0.252061286693466,0.702262821836886,0.0353306965492497,0.0191562854005629,0.0191562854005629,0.0347507885693633,0.331220392606284,0.114707079626691,0.299841776490211,0.329113930463791,2.92673171980037e-20,-0.01834,-0.00011,0.01408,0.0951968303821867
64353,"N",7.83702507510153,7.47095959264823,6.75091823847936,8.41609269074063,0.113807076261704,0.0385947666541147,0.0385947666541147,0.0944365150891551,0.27596424213501,0.223287308189943,0.174282684922218,0.294367700815201,3.05940094000667e-20,-0.01908,-0.00214,0.01546,0.125899754141369
25118,"N",0.409951958377363,0.181678560353754,0.138606921110277,0.260835230411962,0.029593282911677,0.0212336261433464,0.0212336261433464,0.0336645870251534,0.247644471846378,0.163254525784972,0.184359297156334,0.236180901527405,-9.61538461536002e-08,-0.0287325,-0.00319,0.0100125,0.146673692332063
4631,"N",0.590870322021703,0.236687503747642,0.165381248537079,0.822118760617823,0.030941100399218,0.0189898314427683,0.0189898314427683,0.0352046773241827,0.340107143058309,0.157803353343166,0.247999995946884,0.369000002741814,-1.78571428573136e-07,-0.07873,-0.02721,0.036185,0.148105798835213
11204,"N",0.971804757978345,0.613690643036837,0.567930196158683,0.847827234667373,0.0509115470034046,0.0349564791508487,0.0349564791508487,0.0632115976863809,0.477379543652311,0.124422235325757,0.414110422134399,0.5,1.75438596491512e-07,-0.013235,0.0047,0.027205,0.0776375951189332
47818,"N",0.545228841396253,0.13981285105569,0.0794003139321713,0.436798492072978,0.0335410161771098,0.0287214921841265,0.0287214921841265,0.0376292458141124,0.152175107987173,0.164896714541604,0.0877742916345596,0.150470212101936,-4.38596491227931e-07,-0.0678175,-0.0107,0.016905,0.157348838034411
45315,"N",0.462972501953347,0.136944981086011,0.116703549878827,0.447131811674895,0.034137207975696,0.0307630226982914,0.0307630226982914,0.0425690653785034,0.637915726052597,0.158272208845234,0.588957071304321,0.711656451225281,-1.29105653434129e-19,-0.06089,0.00523,0.0546,0.128403649496319
37367,"N",2.04862136082271,1.82106121527039,1.66359796337213,2.04851563610549,0.0591215277843978,0.0230522253307298,0.0230522253307298,0.0525580349843078,0.184979113017316,0.140355627537921,0.122055672109127,0.184154182672501,-2.45901639344501e-07,-0.0308925,-0.00145,0.0158225,0.127683932947716
30059,"N",2.06910839436214,1.77292331758164,1.45016846289134,2.45876248329364,0.0572963539619903,0.019778735135271,0.019778735135271,0.0654872229258632,0.115078824261824,0.186174589285194,0.0355731211602688,0.0948616564273834,1.14942528736143e-07,-0.024895,-0.00168,0.025825,0.136561621225903
7395,"N",0.625742208796029,0.229078847444766,0.127495157433147,0.397956600434977,0.0360153781687137,0.0287159146341922,0.0287159146341922,0.041923000884822,0.144813395972396,0.21423152365492,0.0540123451501131,0.118827160447836,-1.14942528735335e-07,-0.019345,-0.00024,0.020385,0.11177833230659
36517,"N",1.73150535275744,1.91588912162036,1.28445776896844,2.19673112880549,0.0673845364237496,0.0446828475016262,0.0446828475016262,0.100253848500277,0.203889488928804,0.190748111952804,0.1055718511343,0.234604109078646,3.94736842105184e-07,-0.0790475,-0.003325,0.073955,0.160977067306212
40645,"N",0.617990972743664,0.329225533726772,0.152463857185719,0.463189975507029,0.0367896248992837,0.0255592047283655,0.0255592047283655,0.0438690942319438,0.247886752259038,0.210838326166077,0.181818187236786,0.226044222712517,-9.17431192671681e-08,-0.03721,0,0.02487,0.102167872636488
56999,"N",0.825180445536424,0.290671860354019,0.268266356918311,0.825292641269871,0.0454245967957029,0.0365718814317638,0.0365718814317638,0.0543933417893825,0.173024642306576,0.155341744720471,0.0865561664104462,0.178637206554413,-2.04081632652924e-07,-0.02294,-0.00208,0.0183,0.101115501185995
36182,"N",0.660268603427057,0.164976789455934,0.104053477166917,0.595240615821506,0.0384132581952021,0.0313387896818774,0.0313387896818774,0.0442583912426542,0.265665538184628,0.202675511193482,0.125776395201683,0.341614902019501,-1.2658227848341e-07,-0.02941,-0.00489,0.026305,0.117559040273319
32178,"N",5.16445992138197,4.44767530903458,3.91862737980377,5.12115098903995,0.0961134548640925,0.0371604044433878,0.0371604044433878,0.107062696943752,0.391380801964342,0.146355881132942,0.339522540569305,0.408488065004349,4.62284725703602e-20,-0.02844,-0.00206,0.01364,0.121608605556739
60101,"N",1.98033448838514,1.79492480354453,1.23523836790095,2.57032037784671,0.0637897014222663,0.03403919809602,0.03403919809602,0.0748467594804295,0.231834761931428,0.217558123023432,0.118012420833111,0.236542440950871,5.95238095239085e-07,-0.0211525,0.00364,0.0239525,0.152111608274749
60972,"N",0.955073956745085,0.539034282766669,0.423363501818206,0.609033073709875,0.0585148073594018,0.0475468573250797,0.0475468573250797,0.0767306909977482,0.314921073146806,0.123058026489385,0.272260278463364,0.317636996507645,2.64900662251558e-07,-0.014325,-0.00257,0.011985,0.104238776214018
59772,"N",0.720642237270084,0.434059910016449,0.2610411839904,1.38441297165799,0.0417717070916834,0.026654211247019,0.026654211247019,0.0517628065376534,0.429111110434557,0.166654572328254,0.356666669249535,0.46399998664856,-6.94444444445069e-07,-0.02622,-0.00075,0.0239225,0.146082919770953
64176,"N",2.95933355050298,3.03439309121542,2.09000078412911,3.26895419749615,0.0747074141101833,0.0334073536212744,0.0334073536212744,0.0915238053393511,0.421038251397583,0.185234063063895,0.395901642739773,0.486475415527821,2.94117647058602e-07,-0.036085,-0.00619,0.028745,0.137323511500412
823,"N",1.46531195097898,1.14646831872617,0.993727694948438,2.19739025627999,0.056583925497332,0.0333286141368737,0.0333286141368737,0.058454790564879,0.125361841897431,0.16626660970963,0.0687500014901161,0.106250002980232,2.10526315789254e-07,-0.01049,0,0.01631,0.12282786243945
28999,"N",0.999864414503042,0.535373082287456,0.311683985405901,1.86240028772642,0.0489376781319321,0.0321604439325181,0.0321604439325181,0.0581449193447626,0.196800656211765,0.192321418406595,0.110377360135317,0.203773587942123,2.17391304347072e-07,-0.0186125,-0.002045,0.0129925,0.1538756154234
28969,"N",0.98717157600129,0.851411843533851,0.446682724641607,1.49854285812824,0.0475753508345811,0.0323332271123964,0.0323332271123964,0.0483525995854946,0.350162841407237,0.133878589319235,0.310838431119919,0.37627811729908,1.48148148147238e-07,-0.01916,0.00241,0.024675,0.0995860884532108
2173,"N",0.510985954857031,0.0684958405416899,0.0385665077250852,0.141272276052963,0.0353176809378829,0.0324387434359762,0.0324387434359762,0.048034356274579,0.362276926991485,0.113169884304345,0.327683627605438,0.361228816211224,2.38095238095326e-07,-0.018425,0.000515,0.0182175,0.104530112526213
28427,"N",5.64972945427641,5.89519117941875,5.52338821439673,6.28940938300134,0.103120459132905,0.0386757525827644,0.0386757525827644,0.137430798685781,0.348051860446817,0.168263145792185,0.251968502998352,0.38976377248764,2.58620689654883e-07,-0.067895,-0.01705,0.0503525,0.143856937010418
20833,"N",1.30114546906131,1.06745557509595,0.920990825132679,1.362164689675,0.0470564927063834,0.0200361746003678,0.0200361746003678,0.0536512485083602,0.435674930328969,0.169911936082011,0.362947665154934,0.469696961343288,5.09236207889285e-19,-0.027775,0.00102,0.0294875,0.145207248633449
13939,"N",0.526938513176898,0.10947202798711,0.0520884326250152,0.276585325737135,0.0340520510977857,0.0277498642568137,0.0277498642568137,0.0428307913792836,0.128735707061423,0.156571440880047,0.0639293137937784,0.120582118630409,7.50682949504124e-20,-0.0748425,-0.011555,0.026075,0.149872784116722
62120,"N",0.680992878754294,0.243294021321237,0.149471758349142,0.865920204395731,0.0385072145346456,0.0315630904429305,0.0315630904429305,0.0450573130310541,0.406253461807388,0.158230629707257,0.315589368343353,0.475285172462463,9.70873786407002e-08,-0.02613,-0.00228,0.02423,0.113395726598381
50189,"N",0.499346717725668,0.124103546183034,0.0970818248620862,0.217121441118518,0.0317825415644152,0.0265473715499728,0.0265473715499728,0.0379968088042521,0.173051894527788,0.150708435954712,0.113340565934777,0.162147507071495,7.69230769234792e-08,-0.06872,-0.011005,0.024165,0.144075084524057
47630,"N",1.03786264999673,0.504833625442614,0.185202243805437,1.33971361391085,0.0538677974081342,0.0459853936076437,0.0459853936076437,0.0589529885990367,0.204930931489032,0.195353393721425,0.128737539052963,0.203488372266293,1.05263157894089e-07,-0.017875,-0.00014,0.01723,0.119217669532298
38288,"N",3.30082728068036,3.47066217884361,2.34272522078043,4.04328367717425,0.0831660592782274,0.0415065077510511,0.0415065077510511,0.10272035960711,0.321857836534036,0.174931770393377,0.185439564287663,0.413461543619633,4.68749999999242e-07,-0.0696725,-0.01109,0.0282975,0.122829140511662
13215,"N",1.86509893929514,1.00769270377183,0.551598347035268,1.47273711936687,0.0832794448162247,0.0663574183725589,0.0663574183725589,0.118483460748209,0.276717245210836,0.193625155101647,0.152716591954231,0.321585893630981,2.46913580246598e-07,-0.02904,0.00329,0.01694,0.125357727224684
14765,"N",0.604731835793306,0.311934936786495,0.163464177420672,0.725353361308491,0.0394407824889385,0.0316586489083345,0.0316586489083345,0.0477642676016723,0.14077961023735,0.158532200416237,0.0896551758050919,0.124137930572033,-2.91673954011046e-20,-0.0179425,0.000505,0.01927,0.142862208554142
69264,"N",0.640173672606468,0.215936107089008,0.133517270341926,0.391758118829352,0.0379269512035518,0.0308028174806398,0.0308028174806398,0.0464231693974482,0.127011744583007,0.165210786424673,0.0633971281349659,0.125598084181547,-4.04040404040624e-07,-0.037635,-0.00403,0.02311,0.127168467034868
34724,"N",2.98274759122395,3.09232251987553,2.25946902519095,3.42597490695211,0.0702731231246198,0.0242180075870565,0.0242180075870565,0.0594103604408399,0.167474271629446,0.161865224434755,0.0965665206313133,0.175965666770935,1.07526881719723e-07,-0.02673,-0.00255,0.02292,0.12102729529985
42740,"N",0.930289263342935,0.365009003649493,0.117489773072314,0.702121875053285,0.0512746941364996,0.0372521735524888,0.0372521735524888,0.0613363482381351,0.164764080024388,0.181171112671508,0.0555555559694767,0.20833332836628,-1.36986301369613e-07,-0.0594075,-0.00443,0.021225,0.143233176184783
32281,"N",0.984728518554324,0.838330696108246,0.215507818623099,1.66815790874514,0.0479184102187819,0.03045991437496,0.03045991437496,0.0620656117756006,0.128293723008225,0.200675961504801,0.0324189513921738,0.119700748473406,-1.20481927711558e-07,-0.025685,0,0.02161,0.143713159652491
66701,"N",2.22266899722547,1.21138065486524,0.788059005509478,1.94645522587539,0.0834119853728455,0.0710455091583999,0.0710455091583999,0.110167741164722,0.146354264320479,0.158097358140332,0.09454545378685,0.127272725105286,-3.09278350515864e-07,-0.03736,-0.00345,0.00796,0.121823464244489
5799,"N",0.593062842274458,0.24369215475274,0.15671724901036,0.586777437473248,0.0355254307197781,0.0273398659547349,0.0273398659547349,0.0444487839705992,0.222188448949185,0.197998891571295,0.0851063802838326,0.297872334718704,-2.67857142856703e-07,-0.072005,-0.00667,0.045505,0.125275645940036
20786,"N",2.33313234301904,2.19116763631691,2.04122972643811,2.35857702159996,0.0569686766911429,0.0131502314803357,0.0131502314803357,0.0387828641145962,0.17474738180415,0.15300684298027,0.112318841740489,0.180124223232269,3.73134328358344e-07,-0.055765,-0.00281,0.0249175,0.144854393142361
58102,"N",3.35016336434704,3.47488236297085,2.68533051704731,3.87560319648577,0.0748475115843609,0.0272616926137791,0.0272616926137791,0.0943480152848896,0.211714415416374,0.16616716211139,0.137168142944574,0.220796462148428,-4.23728813559502e-07,-0.048805,0.002865,0.0317925,0.137069256338364
51493,"N",1.03405234287222,0.412845332958904,0.333209647194021,1.14783606309028,0.0527991303289893,0.0428958496059476,0.0428958496059476,0.0601552025016332,0.1808441558498,0.216179895000616,0.0719696953892708,0.179545450955629,-1.19047619047039e-07,-0.01774,0.001065,0.029925,0.181377415468835
40159,"N",3.86053120373299,3.36213489274457,2.89725063408639,4.55961070075695,0.0850993195232068,0.0361232669237859,0.0361232669237859,0.0949249381990253,0.150923757085813,0.24737241226129,0.0273224040865898,0.113387975841761,-1.58730158730004e-07,-0.04623,-0.00187,0.05645,0.131199491043123
31859,"N",1.95575347756634,1.63462955559764,0.981269592745699,2.2066481647408,0.0735411807705671,0.0518261310898081,0.0518261310898081,0.0819544756357227,0.276353599525046,0.180008752272454,0.180921047925949,0.310855269432068,1.14942528735721e-07,-0.01925,0.00104,0.031335,0.131044316607409
50415,"N",0.519121706280267,0.464252408862051,0.432780573027765,0.559089880748496,0.0334535124270107,0.014234000857173,0.014234000857173,0.04754813669792,0.288034187146248,0.204552857222377,0.159595966339111,0.345454543828964,4.80769230768465e-07,-0.0303725,0.00148,0.0182075,0.153998128751586
53621,"N",0.505708586293404,0.12096604109063,0.0764864804612848,0.262163703152686,0.0332201088608638,0.0288249321552487,0.0288249321552487,0.0410961536642679,0.313199999496341,0.126977871667167,0.268750011920929,0.315625011920929,2.39999999999864e-07,-0.02234,-0.00142,0.02133,0.105845725022729
3641,"N",0.851011665703344,0.342740781902204,0.188160127501861,1.57806991122934,0.0458383178642903,0.0307342524992741,0.0307342524992741,0.0577687791779668,0.284809745359913,0.22312864708263,0.126086957752705,0.305590063333511,-9.70873786414448e-08,-0.01821,0,0.018275,0.148075106806893
45568,"N",2.41998634887343,1.54500528467484,0.865064250058029,3.7820004751276,0.07925022665751,0.0549677859331002,0.0549677859331002,0.101802656632522,0.136160497087985,0.197921549155243,0.0639269426465034,0.105022832751274,-1.06382978722435e-07,-0.032485,-0.000375,0.0323875,0.137296504834513
71676,"N",1.6439298402104,0.923392536606075,0.677790962846994,1.27598294560217,0.0729670271989758,0.0601677272634911,0.0601677272634911,0.093549608960772,0.380946968831122,0.176025970153081,0.248106062412262,0.462121218442917,5.99999999999322e-07,-0.030745,-0.006455,0.02427,0.119617859759209
51025,"N",0.59346107324716,0.169477684526485,0.117484678260931,0.429616133830597,0.034946306621365,0.02882163693662,0.02882163693662,0.0419232871588718,0.42527721813249,0.125677513982584,0.37369791418314,0.44401042163372,3.58764561810535e-19,-0.0422825,-0.000775,0.027345,0.103423878255923
61948,"N",0.354684900793,0.0615424494468263,0.0460310934583823,0.256517297065176,0.030381253517301,0.0286240894742227,0.0286240894742227,0.0392597850233456,0.0986387842151262,0.150025614707073,0.0343980342149734,0.0909090936183929,-1.45985401459857e-07,-0.04418,-0.00839,0.01878,0.113271589189989
29465,"N",5.87925998520904,6.27877643534263,5.8229346131603,6.68531027161694,0.121497464395926,0.0725097969495581,0.0725097969495581,0.127600025476451,0.169702712129405,0.197910519408309,0.0890410989522934,0.15068493783474,1.06382978723114e-07,-0.0109775,0.001855,0.0104325,0.147712006060432
45247,"N",2.2431541383969,1.41354268128222,1.14025849611073,2.0905306834528,0.0808773874735827,0.0604542336667029,0.0604542336667029,0.104055213158855,0.521353271723326,0.192756774866564,0.496234931051731,0.58132529258728,4.56323874744911e-19,-0.05975,-0.002185,0.0584725,0.112769995267923
55961,"N",3.08812202668436,3.33773416277489,2.16061198748875,3.82579636548447,0.0810747692331125,0.0462387928799764,0.0462387928799764,0.103620887278834,0.11838603152958,0.169779258351409,0.0430107526481152,0.110215052962303,2.97029702970658e-07,-0.02046,-0.00225,0.0105,0.13051036094085
25449,"N",1.29753161890355,1.23483375526443,0.604375273968844,1.63679468948257,0.0676235039464527,0.0540514331503413,0.0540514331503413,0.0893823127215612,0.19973389703858,0.170808378557781,0.13781513273716,0.205042019486427,-5.00000000000169e-07,-0.04506,-0.00601,0.038215,0.14175513249256
11117,"N",0.599459527960116,0.222425761601671,0.177307748392884,0.376697581782945,0.0354040988466075,0.0270061106849232,0.0270061106849232,0.0398990642235055,0.260472746291898,0.227695886626886,0.0953002646565437,0.284595310688019,2.65486725662345e-07,-0.09335,-0.01448,0.03614,0.188403224473185
59085,"N",0.918006113091779,0.479837657616664,0.328642767663725,0.514851089375422,0.0520925557638817,0.0427854387209535,0.0427854387209535,0.0636231444634081,0.262194786807177,0.153979119759257,0.197037041187286,0.266296289861202,7.50910393536257e-19,-0.042205,-0.001725,0.0284325,0.14231294457776
32817,"N",3.80901346924121,2.57566866471465,2.10380449151078,4.02376646332975,0.098622113918533,0.058053786296779,0.058053786296779,0.117211787053707,0.352537825022425,0.123778381391789,0.290196090936661,0.374509811401367,-3.42857142857667e-07,-0.018935,0.00218,0.02245,0.0903622796322755
5483,"N",0.58664739855318,0.256975147530096,0.185776531537384,0.498577326330726,0.0358957973360964,0.025963832360816,0.025963832360816,0.0423925254387987,0.421653103008866,0.134792308954893,0.364025682210922,0.458244115114212,-2.39999999999592e-07,-0.0291,0.00728,0.03119,0.112222226303682
1434,"N",1.83890513158194,1.47856849781881,0.895021259092673,1.80585224186058,0.0714180948083677,0.0516781121019563,0.0516781121019563,0.0853184381552583,0.0988504118763674,0.161389136333491,0.0258302576839924,0.10332103073597,-6.41025641025103e-08,-0.0323425,-0.00271,0.0242625,0.122837424109802
38496,"N",2.16041478248963,1.95209074458024,1.72320499194328,2.12544328830607,0.0655681379244611,0.0265735655090409,0.0265735655090409,0.0872963766852306,0.378329425993,0.186259032009555,0.252024292945862,0.464574903249741,-8.77192982461468e-08,-0.092915,0.000575,0.07564,0.148095913877027
11422,"N",1.42132431730087,1.16839227011624,0.833986292580955,1.99192850528632,0.0598533892745916,0.0424416163212598,0.0424416163212598,0.0647304052004085,0.397069025704617,0.147185803302242,0.327956974506378,0.422043025493622,1.07526881720072e-07,-0.02019,0,0.0218,0.120048305209545
53130,"N",0.570603445840316,0.174766174382659,0.15243383393603,0.343451078867332,0.0354628060771106,0.0298768649551718,0.0298768649551718,0.0424653075153798,0.151989756320464,0.173267301176954,0.070023151114583,0.146412037312984,-2.12765957445864e-07,-0.0325225,0.00115,0.0367575,0.146642593630299
24853,"N",1.63672831564913,1.94852286933759,0.54200147011977,2.175310486558,0.0603487582321518,0.033804094190697,0.033804094190697,0.0640514342155355,0.543294656185558,0.148653847837969,0.46278315782547,0.589805826544762,-6.09756097553219e-08,-0.02776,-0.000255,0.0277225,0.107914946908452
58624,"N",0.609488381902629,0.44863738999871,0.263933469226817,0.521907654679133,0.0479293724484422,0.0342916922053932,0.0342916922053932,0.0593573196242004,0.379843749904207,0.122747993444009,0.334374994039536,0.408593751490116,-7.14285714284612e-08,-0.033015,0.00285,0.019145,0.0825076785395182
12083,"N",1.92009937726098,1.84475025833397,1.52056452658388,2.43263006476478,0.0616101962759618,0.031047948424099,0.031047948424099,0.0758013397205413,0.116000889661781,0.140040808274878,0.0598290599882603,0.105413109064102,-3.54609929078082e-07,-0.02836,-0.00151,0.01599,0.100166163458606
16243,"N",3.47268037455381,3.67764044618399,2.55211770085657,3.94888025187771,0.0841384922778582,0.0427617880653237,0.0427617880653237,0.108021285398766,0.219637636982259,0.215176197189543,0.102521931752563,0.219846490770578,-2.38095238095074e-07,-0.02157,0.004205,0.02626,0.154465450341946
59494,"N",0.504174121854261,0.230523577700108,0.104832887467795,0.358026385492797,0.0319173439196705,0.0226072164477913,0.0226072164477913,0.0373199456467428,0.296276757267312,0.2052284204192,0.162298381328583,0.350806444883347,-2.844278782066e-19,-0.0898,-0.00017,0.040725,0.174309489528318
17832,"N",1.70750137370949,1.11251351785082,0.847004520187218,1.44052499260057,0.0742591213854291,0.0596356060892096,0.0596356060892096,0.0907011892491391,0.167976395761834,0.198904171707756,0.0401146113872528,0.18911175429821,5.94059405941043e-07,-0.01707,0.00034,0.02562,0.145514088691245
35556,"N",1.80453098897691,1.66504646959357,1.20907499643064,2.42519718936717,0.0633858187725595,0.0379931282579155,0.0379931282579155,0.0741223305999513,0.456466069733593,0.146958776799864,0.378787875175476,0.488636374473572,7.04225352114033e-08,-0.03026,-0.001075,0.02823,0.123986009182668
55990,"N",0.801913551207883,0.279655064752104,0.191637538350554,0.45876733655737,0.0482079329473889,0.0410409526775779,0.0410409526775779,0.0625273720033817,0.288208168651909,0.165913043707299,0.202075101435184,0.367588937282562,-4.44444444443129e-07,-0.0440325,-0.002755,0.0166075,0.148203253834021
7334,"N",3.1992806067458,3.33806741673226,2.60533336743078,3.71229143662009,0.0726422976664356,0.0245365547322032,0.0245365547322032,0.0756423357181163,0.389814815966895,0.152254979941386,0.292857140302658,0.460714280605316,-3.97791769303131e-19,-0.0521225,-0.01407,0.0509275,0.127226261226975
8487,"N",10.0965749984012,9.68573085229544,7.62040738755686,12.8752826908956,0.144602048062562,0.070490103645663,0.070490103645663,0.157757828353855,0.266871997402106,0.186312705271587,0.191729322075844,0.329573929309845,2.40963855421927e-07,-0.02373,0.00045,0.01929,0.128855580474628
2222,"N",2.35720144573013,2.16815618607697,1.95661562245209,2.60056317662888,0.0603300186964544,0.0175672478468552,0.0175672478468552,0.0412389650594209,0.313658162584585,0.14758173161617,0.240107912570238,0.33093523979187,-2.2727272727216e-07,-0.05839,-0.01516,0.045755,0.131419664634406
51264,"N",5.17557240724074,5.30508158052263,4.06285868416457,6.12041486993108,0.0645724812768193,0.0327737734119249,0.0327737734119249,0.0621463422254659,0.123726133413301,0.151029101856735,0.0660377368330956,0.11132075637579,1.19760479041079e-07,-0.017855,-0.00334,0.011645,0.113164329770983
64616,"N",0.754322202465619,0.225022689145304,0.0899872499030658,0.412610562777743,0.0458993876558014,0.0393047781276862,0.0393047781276862,0.06195941996398,0.289446669155914,0.178102120644551,0.211387436836958,0.356020957231522,-1.96078431372926e-07,-0.0352525,-0.00306,0.040255,0.140255569762723
29084,"N",1.61817870904992,1.47522312831487,0.871420410478402,2.1732150255225,0.0586394195997994,0.0333550304490787,0.0333550304490787,0.0737600274182554,0.263316708132625,0.165532374581224,0.194513708353043,0.268079802393913,-1.99999999999118e-07,-0.0407275,0.00373,0.05308,0.143718905583719
23977,"N",0.880138208269656,0.466707349891611,0.318514397320205,0.551988255862331,0.0563516903539509,0.0431889960829168,0.0431889960829168,0.0704444579248173,0.354043646677723,0.184543114517617,0.184210523962975,0.486842095851898,4.06504065040674e-07,-0.04099,-0.00922,0.02866,0.0892363970291911
42209,"N",1.16374148764154,0.676373989592748,0.244898673455648,1.4222164650804,0.0570367730167444,0.0453483910969318,0.0453483910969318,0.0629013671784238,0.444924276277062,0.184138289470457,0.388854287564754,0.527397274971008,3.22580645161529e-07,-0.0204875,-0.000565,0.0209625,0.0678392809457655
51442,"N",1.15499689939376,0.653667567445147,0.516543893457243,1.90590401740257,0.0545875048520552,0.0396248700041359,0.0396248700041359,0.0581935605450725,0.170068402964513,0.202341022176623,0.0440340917557478,0.176136359572411,-1.94174757281336e-07,-0.021505,-0.00186,0.030465,0.138052994747617
14983,"N",3.57166876560548,3.77350932744011,2.79009139807221,4.18927322880511,0.080535723349838,0.0326670999510033,0.0326670999510033,0.087731258286354,0.33818757409524,0.142622982062991,0.281954884529114,0.343358397483826,-1.12075420168283e-18,-0.0148,-0.00023,0.014905,0.11816551124984
43978,"N",1.44366377777711,1.19772267521018,0.978432132509775,1.92644323859027,0.0593787266791803,0.0402691025644553,0.0402691025644553,0.0663695292300919,0.164500427416019,0.141384980207119,0.113567071035504,0.167682930827141,3.5087719298203e-07,-0.0571175,-0.009315,0.0144875,0.137499087050419
60942,"N",2.07006557153312,1.88140143575356,1.59531492215856,2.44594736754563,0.0584139619048044,0.0206431788252716,0.0206431788252716,0.0622448115377296,0.320923520839124,0.11046636591256,0.28924161195755,0.319223999977112,6.06060606063608e-08,-0.01952,-0.00101,0.0156,0.0924534237088282
68117,"N",0.690793125940619,0.125254798248342,0.0881376030871764,0.476431108121774,0.0455393517788717,0.0423927612865491,0.0423927612865491,0.0560439807238498,0.301170274188728,0.145650050514605,0.254863798618317,0.291828781366348,3.05343511449985e-07,-0.01703,-0.00744,0.00685,0.120176434941675
52435,"N",1.47919898923942,1.21611495762546,0.81336712788881,2.13356875014175,0.0612394419245757,0.0435402902635108,0.0435402902635108,0.0637400824898462,0.320481523550967,0.0951758618443976,0.294820725917816,0.322709172964096,2.68817204300915e-07,-0.0176975,-0.002045,0.01212,0.0814923430820861
30172,"N",0.560163695983377,0.383938828727676,0.115574729190615,0.600082534908449,0.0339093161041555,0.0235485516313195,0.0235485516313195,0.0355744818180113,0.350860680678957,0.138382389122804,0.310588225722313,0.398823529481888,-3.15789473684512e-07,-0.02508,0.00129,0.031755,0.0662557334083148
23248,"N",6.82027168908806,8.01558241114902,4.52756963748495,8.77484578354784,0.105330243353084,0.0346232282165295,0.0346232282165295,0.118329447584358,0.22438866472558,0.179569473757139,0.147692307829857,0.218461543321609,-1.052631578944e-07,-0.02033,0,0.02109,0.138368366592199
63411,"N",1.56721763522271,1.3076003679262,1.00909997105069,2.0872065654734,0.0618338268514355,0.0416469679819344,0.0416469679819344,0.0668784567689213,0.401361315864925,0.108888809796321,0.360975623130798,0.429268300533295,7.75193798449623e-08,-0.03957,-0.00161,0.02675,0.0969429341682528
55081,"N",1.13874600927095,0.557237542957401,0.499109081179109,0.698292437805089,0.0623099311594029,0.0528430742653752,0.0528430742653752,0.078872897164188,0.139008695219448,0.16042217095466,0.0725508332252502,0.134935304522514,4.32098765432257e-07,-0.030075,-0.00285,0.016155,0.129621905754255
23057,"N",0.894954324677918,0.840666053749042,0.444948751324202,1.25161505555935,0.0459982980664697,0.0264077974565126,0.0264077974565126,0.0474340660392923,0.118634357208889,0.146001667518081,0.0639534890651703,0.119186043739319,-1.91423037710432e-19,-0.03515,-0.00075,0.01937,0.106948490831692
27655,"N",0.615129279287672,0.214817623349763,0.161759355606681,0.907818850150556,0.0398431670234632,0.0322234398631577,0.0322234398631577,0.0467999565920583,0.350188638297496,0.122931686830819,0.312768995761871,0.350071728229523,7.40740740743936e-08,-0.018615,-0.00035,0.01359,0.105977178714115
51186,"N",0.560415092193518,0.145784242111327,0.0890228985460936,0.239270844799723,0.0405085101922526,0.037743887113969,0.037743887113969,0.0583185757376685,0.343278932506624,0.153274450877392,0.28080227971077,0.368194855749607,-5.43478260869237e-07,-0.01847,-0.00262,0.0256175,0.141792002745425
23294,"N",2.0119331136509,1.83809717905678,1.5009814045668,2.65794007021448,0.06155362090424,0.0231015876233581,0.0231015876233581,0.082069363678215,0.15695512058163,0.189790998783046,0.0458715595304966,0.180045869201422,-2.7027027027012e-07,-0.0458775,-0.002635,0.0314175,0.149954876668487
63730,"N",1.94166280525763,1.76888992535349,1.64483787870915,2.11851359090128,0.0638003524841749,0.03496753585991,0.03496753585991,0.06762660640413,0.21106337348954,0.19288544560887,0.127819553017616,0.203007519245148,1.68067226890623e-07,-0.049495,-0.00399,0.049315,0.145513846670524
49759,"N",0.866351091466381,0.353614849582959,0.220949715297315,0.413896489483873,0.0492116390206554,0.040814391814538,0.040814391814538,0.0644573233068494,0.642354365980741,0.216088378976356,0.5,0.803124994039536,1.94174757281339e-07,-0.023935,0,0.023305,0.0984470665869216
60225,"N",1.18957505647674,0.777996446569915,0.669509367298408,1.12073591789279,0.0520358508775504,0.0314280821013236,0.0314280821013236,0.0634971304488717,0.15320857729192,0.1532076081321,0.0870726518332958,0.149572655558586,-1.61290322580975e-07,-0.04941,-0.00278,0.0297075,0.132786591165937
39798,"N",0.896861479305447,0.659198668371036,0.530387359165238,1.05132963199194,0.0422256219102043,0.0235940709152885,0.0235940709152885,0.0379880679361103,0.367255823303233,0.116119435005227,0.333333343267441,0.375978097319603,-2.20588235294048e-07,-0.0190275,-0.001785,0.0126375,0.108896006044958
25045,"N",0.532706295609621,0.135364844993713,0.105334999379447,0.268539634007348,0.0343151309855321,0.0295210270844441,0.0295210270844441,0.0432589860372866,0.297031780274244,0.185830111889343,0.200557097792625,0.367688030004501,-5.37634408602565e-07,-0.03946,0.0016,0.03322,0.129741042116558
33058,"N",3.0695617011342,2.24532193878519,1.7438379946555,4.49345643933745,0.0795389324413083,0.0374667134826561,0.0374667134826561,0.0838381899004687,0.428183396012546,0.164646630114034,0.358757048845291,0.480932205915451,-1.28205128204684e-07,-0.0341675,-0.004125,0.024555,0.138024711541402
51260,"N",2.78146072501811,2.49542751187432,2.143308945585,3.29023773722252,0.0743284932840957,0.0319294903040838,0.0319294903040838,0.0903781064458565,0.128167462655456,0.174767529139059,0.0578406173735857,0.113110542297363,-1.09890109889356e-07,-0.03015,-0.00293,0.008665,0.133543295006147
55049,"N",3.9364459504589,4.0142926820476,3.1323190283462,4.40222539594595,0.0881376839069381,0.0434995547801162,0.0434995547801162,0.119694062049132,0.130794465496409,0.194490537665971,0.0299707604572177,0.139619886875153,-2.43902439024813e-07,-0.04781,-0.00468,0.0198175,0.166336865285559
60920,"N",0.399422719793692,0.0347064917824667,0.0177769299808691,0.205476094847074,0.0349716692024735,0.0332239542995677,0.0332239542995677,0.0522024806811432,0.205575034430911,0.151309681203627,0.126811593770981,0.213768109679222,3.22580645161564e-07,-0.039675,-0.00219,0.01844,0.106031299651279
55992,"N",0.529864950386407,0.209400517285998,0.108503143589124,0.428028906407572,0.0344958518025829,0.0283554380642057,0.0283554380642057,0.0418047341216659,0.126541825062544,0.183349139077397,0.0459183678030968,0.107142858207226,-1.09890109889555e-07,-0.023745,-0.0037,0.008595,0.136481674589949
58690,"N",2.60161649551142,2.38112660876936,2.1635584986381,2.95823469218123,0.0687532989598024,0.0239778124888977,0.0239778124888977,0.0942782734490552,0.115990029168853,0.152556897992554,0.059259258210659,0.111111111938953,-3.84615384615061e-07,-0.0392875,-0.005235,0.013255,0.14002901299875
42127,"N",0.656724460312541,0.352930813269669,0.304574760169859,0.39077248373961,0.0513985197079399,0.0411312767353303,0.0411312767353303,0.0698318375618388,0.117217981417974,0.138319496072588,0.0661577582359314,0.108778623864055,2.66666666666851e-07,-0.043005,-0.002415,0.0182525,0.128568315305909
16749,"N",0.962275840541547,0.316543749812246,0.216664065528661,0.560389060686901,0.0531942541535744,0.0451525254719647,0.0451525254719647,0.06704275417614,0.331303838575095,0.172289300150419,0.213367611169815,0.401028275489807,-1.75438596490683e-07,-0.04917,-0.00099,0.02887,0.111593306562766
6230,"N",1.70772369635848,1.58932656370018,0.974943928074149,1.87143371770395,0.0656719449766962,0.0423927345148767,0.0423927345148767,0.0851131403519184,0.247961984748401,0.18035605446157,0.128691986203194,0.324894517660141,-9.35133315958407e-19,-0.025615,-0.00735,0.028465,0.117322543969731
10762,"N",0.546834372229405,0.150871885006811,0.0935432001157651,0.305315601819595,0.0336954057198908,0.028190027310718,0.028190027310718,0.0380058785339051,0.181014493323755,0.18350620015139,0.0729999970644712,0.203999996185303,-7.24637681161602e-08,-0.02787,-0.00236,0.024435,0.121016197609809
43755,"N",0.618812374273431,0.267368109571149,0.171477036171087,0.383092918840421,0.0423387131055327,0.0376130229887191,0.0376130229887191,0.0544061610831084,0.745970180191153,0.189808491271781,0.710144937038422,0.855072438716888,-1.26133687993968e-19,-0.022175,0.00471,0.042655,0.108715440372388
5307,"N",0.601485819298362,0.191287571163331,0.131488378369896,0.32484606263784,0.0373939573896446,0.0324626315060802,0.0324626315060802,0.0421686350888287,0.297439176214135,0.203602459541767,0.16527196764946,0.351987436413765,3.70370370370663e-07,-0.07158,-0.00183,0.0369875,0.175011407622453
17413,"N",0.836740981886214,0.374826404422554,0.233856205020856,0.467665068143028,0.0502405087525417,0.0451152569220265,0.0451152569220265,0.0624367752303267,0.291898998235794,0.15791240873329,0.211886301636696,0.351421184837818,-2.63157894737061e-07,-0.065575,-0.01163,0.0336125,0.105598809446732
6634,"N",0.463323510694455,0.169120181947126,0.136141240540755,0.288832931800705,0.033978304710321,0.0320637812364549,0.0320637812364549,0.043406026099037,0.114178028497749,0.18240328974804,0.0349462367594242,0.0994623675942421,1.03092783505361e-07,-0.02447,-0.00201,0.0114,0.139987260808014
30164,"N",6.3056482034602,6.39897113604507,5.79682031632942,7.47104480040078,0.0915774303350096,0.0303457222782416,0.0303457222782416,0.10540077996985,0.152523765047609,0.166612013836801,0.0805194824934006,0.158441558480263,3.09278350514675e-07,-0.03144,-0.00273,0.01188,0.127345996603525
66869,"N",0.561772781816156,0.272473357679309,0.120341964451372,0.588748773575097,0.0360818092400601,0.0269585525056949,0.0269585525056949,0.042492604129778,0.430074566712892,0.173001044890052,0.358823537826538,0.470588222146034,-4.22535211267875e-07,-0.0405,-0.00721,0.05291,0.133425198813381
13283,"N",0.856106840893375,0.362401954689074,0.187207256001159,0.447576909331942,0.0541648429712268,0.0439523322829269,0.0439523322829269,0.0700694828447013,0.30205299038394,0.1860512943018,0.168539330363274,0.363764047622681,1.23456790123191e-07,-0.01516,0,0.01213,0.115821109501829
64750,"N",9.13675295609614,8.35398516959804,7.63410368033147,11.0875651578987,0.130539727916842,0.0593838695093324,0.0593838695093324,0.141903218528603,0.225301728784025,0.175860670474027,0.144060280174017,0.247783690690994,-8.77192982455563e-08,-0.062245,-0.01082,0.034915,0.136217185487427
53042,"N",0.295310324802252,0.0637405461928586,0.0457267548346677,0.158594485481458,0.0281611195477042,0.0273190538717512,0.0273190538717512,0.0383577906178521,0.15592599493786,0.162768586129987,0.101886793971062,0.154716983437538,9.70873786403283e-08,-0.019445,-0.00188,0.020935,0.128396563461854
63481,"N",0.926222092064399,0.599571545430893,0.284071256198332,0.660822906485661,0.0500363687611168,0.0359049965122321,0.0359049965122321,0.0586275946494858,0.169516646433188,0.200832908383075,0.0727124214172363,0.169117651879787,2.32558139535694e-07,-0.012795,0.002825,0.0196525,0.140880242091324
36091,"N",0.928660716348188,0.20001157976411,0.153798228901937,0.705316378874733,0.050033444839779,0.0424241009054375,0.0424241009054375,0.0615493933554411,0.150296758290879,0.172497180327052,0.0700757578015327,0.159090906381607,1.2738853503125e-07,-0.02718,-0.00404,0.03068,0.116137506160427
30922,"N",0.557254558596255,0.100390829339126,0.0455475229681603,0.256990116958484,0.042559380441828,0.0378679072115876,0.0378679072115876,0.0570285997946773,0.124650455367296,0.185929915983143,0.0378571432083845,0.108571425080299,-2.12765957445986e-07,-0.01497,0.000625,0.0290575,0.154057839389541
69350,"N",1.68580449379571,1.56871416411675,1.06658962954485,2.32819238637731,0.0598647290609445,0.0333690479182659,0.0333690479182659,0.0763498064790386,0.746123950261233,0.182819570905375,0.684903055429459,0.861495852470398,-1.49253731342411e-07,-0.015915,0.003825,0.0272525,0.107736663532664
15564,"N",1.21699598523272,0.89212575609772,0.566534995037423,0.96431043589002,0.0590687028829312,0.0406910827035739,0.0406910827035739,0.073063489183838,0.342708333473032,0.192548316548454,0.189814813435078,0.381481468677521,-4.16666666667124e-07,-0.03414,-0.0073,0.0210175,0.134151519887945
18059,"N",0.979268670688323,0.45443136863135,0.376274086283936,0.730593049115303,0.0634992130176905,0.0537994572846725,0.0537994572846725,0.078853664681486,0.470113947251162,0.157593298381658,0.407593131065369,0.520773634314537,4.65116279070844e-07,-0.017485,-0.003025,0.01154,0.133331147844993
11132,"N",1.76002260416156,1.72748813868549,1.26873405870101,2.52686762006831,0.0659133047915807,0.0440592445327371,0.0440592445327371,0.0706919918520095,0.187251898641354,0.14768241366444,0.106571935117245,0.202486678957939,1.34228187919289e-07,-0.03175,-0.00403,0.02596,0.106681474910928
14736,"N",1.9670641636136,1.72645530630652,1.4815764195073,2.28048829690017,0.0566723312667827,0.0205839556669332,0.0205839556669332,0.0616603597369214,0.261582885397954,0.202084289752318,0.151394426822662,0.282868534326553,-1.12359550561838e-07,-0.01857,-0.00231,0.0193,0.101818431606266
64772,"N",2.02192649754259,1.82855532249736,1.58990613652396,2.42481510188041,0.0574024014422214,0.0206288875919827,0.0206288875919827,0.0618314484831996,0.11477300804987,0.18981825459444,0.0349344983696938,0.0949781686067581,3.77358490566434e-07,-0.12032,0.00243,0.03849,0.17070027349505
25641,"N",4.12047715169714,3.87490197123042,3.44472182400827,4.74470573337256,0.0862319615889782,0.0263079879377309,0.0263079879377309,0.119015149929286,0.354098010163468,0.129802655634362,0.31800764799118,0.379310339689255,6.99300699300084e-07,-0.02519,0.00217,0.026075,0.0937551243192992
56157,"N",3.81435429624674,3.16591280306641,2.72701430839546,3.92918979844602,0.0824663392280335,0.0343434613681706,0.0343434613681706,0.0962114783547579,0.137751910785011,0.215942754928248,0.0417607221752405,0.106094811111689,2.40963855422418e-07,-0.03904,-0.00558,0.00949,0.141857504121393
55641,"N",0.970012447474077,0.596392293153776,0.202417317144689,1.61798975744718,0.0553540988475462,0.0497609231372561,0.0497609231372561,0.0733357254014697,0.327759873569012,0.122689707400531,0.287519752979279,0.334913104772568,3.10686372462232e-19,-0.02341,-0.0018,0.02082,0.10394822268027
33622,"N",0.645477942393691,0.182937486452352,0.139262974959836,0.256838888578988,0.0403641625764459,0.035728380554382,0.035728380554382,0.0491927983477407,0.317308521003656,0.219530185887749,0.155251145362854,0.456620991230011,-6.02892058890124e-20,-0.06601,-0.0172,0.03583,0.158672228775597
1873,"N",1.74690845143242,1.70539342353682,1.28571192746997,2.04534468235319,0.0540625977211186,0.0183180688821361,0.0183180688821361,0.0334728018061674,0.388265307538123,0.228012877196253,0.258673474192619,0.518367365002632,-2.38095238094671e-07,-0.0548,-0.00568,0.0479275,0.10917764774077
57635,"N",0.584223140655721,0.133907961271992,0.0668261489865334,0.33776113795107,0.0357336287159811,0.0311682604095854,0.0311682604095854,0.042688645349471,0.126899754891739,0.160464904484813,0.0593471825122833,0.136498510837555,-8.48838584520765e-19,-0.04243,-0.01851,0.020345,0.133034105559835
47909,"N",2.42648716356144,2.34983843623082,1.89608176047256,2.60445919960474,0.0677376290534391,0.0310839598720142,0.0310839598720142,0.086750333224327,0.578588889451588,0.12058203106661,0.531855940818787,0.615650966763496,-1.76470588235835e-07,-0.0231925,0.00191,0.02973,0.090148394653197
10096,"N",0.397198747875173,0.113620552177954,0.0510378123149598,0.333408249684113,0.0313907263934803,0.0267096435652701,0.0267096435652701,0.0372049441102931,0.151426297545433,0.189438744958289,0.0637450218200684,0.141434267163277,-2.3999999999938e-07,-0.02971,-0.00433,0.01791,0.153597210022041
10250,"N",0.922720103194896,0.239715829092743,0.169499362020611,0.470579688378426,0.0519891083876017,0.0467063944591586,0.0467063944591586,0.0696616425034939,0.165315771741526,0.151591861338161,0.109929077327251,0.163120567798615,4.761904761906e-07,-0.02265,-0.00448,0.00835,0.118823033779238
25855,"N",0.485216084959302,0.175875168684208,0.109138411439967,0.211688123031913,0.0381161532704533,0.0344828968173403,0.0344828968173403,0.0541275510422156,0.214378882109096,0.172161170213667,0.147826090455055,0.217391297221184,-8.92857142858024e-08,-0.0379225,-0.00576,0.0217825,0.145064709658415
38426,"N",0.923291992107796,0.393052699277105,0.34087539863908,0.956747281559927,0.0484469648448192,0.0356556874087293,0.0356556874087293,0.0570273661842431,0.43853912552869,0.162283888046144,0.373177856206894,0.475218661129475,-4.05405405405603e-07,-0.0262125,-0.00576,0.013335,0.140919479548683
56178,"N",1.84767956724987,1.4123847043121,0.954297251344231,1.87806069660265,0.0711071779674781,0.0511694178626701,0.0511694178626701,0.0869520157577938,0.249434860178618,0.179569629498104,0.167138814926147,0.264872521162033,-7.07070707071153e-07,-0.011675,-0.00016,0.00927,0.10159067345563
53590,"N",3.17520704290602,3.10523934576193,2.23997147729274,4.0337541791123,0.0813747337328527,0.0413283747965618,0.0413283747965618,0.100859083312167,0.172636646544561,0.193621746605935,0.0680529326200485,0.158790171146393,-8.54700854695519e-08,-0.04236,-0.00547,0.02908,0.143369939735707
14401,"N",1.67974403128726,1.46941463090947,1.188346668141,1.84996803911196,0.0539608662886927,0.0234790494846462,0.0234790494846462,0.0633422173155757,0.417712840578192,0.165872887414487,0.352777779102325,0.466666668653488,1.29870129871021e-07,-0.02335,-0.00411,0.02317,0.125242282591252
46697,"N",1.80280369358645,1.54602406984127,1.34940817877211,2.36090521831896,0.0578312798090289,0.0242251281627652,0.0242251281627652,0.0748337230130389,0.744350380430751,0.186691118856444,0.703608244657516,0.853092789649963,-6.62251655629803e-08,-0.02413,0.00778,0.03627,0.102208370286695
33442,"N",3.71829435498827,3.90945701986148,2.80818057347623,4.31540289047057,0.0829442793474418,0.0352382338010563,0.0352382338010563,0.0750478008643199,0.270785658721529,0.183135914242633,0.192355886101723,0.328947365283966,-2.17391304348718e-07,-0.0346525,0.008255,0.0343675,0.152118123036002
48607,"N",1.24470026479613,0.962273671152944,0.288086158560247,1.85408822652418,0.0597751940752101,0.0387039581957113,0.0387039581957113,0.0800955462628944,0.126357491205757,0.18784758350107,0.0345744676887989,0.125,-1.04166666667051e-07,-0.03378,-0.002705,0.0118925,0.160926522935778
9110,"N",1.20171998466234,1.10125824447514,0.605288327257806,1.63872453869297,0.0583208065922438,0.04642624679785,0.04642624679785,0.0646382240308906,0.463509198278189,0.189029594320175,0.398110657930374,0.549257755279541,-1.58730158729623e-07,-0.018785,0,0.025375,0.0651995653184615
44796,"N",0.82856502269734,0.440997242642575,0.311508928868202,0.870327543812258,0.04403955416683,0.0282401732815163,0.0282401732815163,0.0470848546037609,0.57716516276475,0.162654565589927,0.564587011933327,0.635764509439468,3.4883720930169e-07,-0.0191275,0.000515,0.0264925,0.0986429711690263
62529,"N",0.62915007125246,0.128812015931553,0.0331921154805792,0.565106269088113,0.0440220439497041,0.0397133421383911,0.0397133421383911,0.0603135665146797,0.404110251925886,0.136225596218347,0.330851070582867,0.434042543172836,1.41069487215443e-19,-0.034545,-0.0049,0.0209575,0.122078138368131
43474,"N",1.20554610684472,0.911681543369266,0.803152257750148,1.19330962986405,0.0542721508557096,0.0340402794980138,0.0340402794980138,0.0666176755865805,0.416245534559529,0.170965628980721,0.374570451676846,0.470360830426216,-1.07357273942192e-18,-0.0222175,0.002945,0.0496475,0.139247292509719
69255,"N",2.71992467112098,2.78290325525194,2.23971790261386,3.07906757137656,0.0664667359891788,0.0211531628246691,0.0211531628246691,0.0528593593374735,0.106818593109564,0.165562647303657,0.0491228066384792,0.0877192988991737,-1.5114557097439e-18,-0.0258,-0.00291,0.01173,0.125462374647076
18671,"N",0.762020548709828,0.365583567387392,0.18981957839472,1.18181299589315,0.0498484360293201,0.0423632944683727,0.0423632944683727,0.0599569662341353,0.394821251004298,0.162750218728014,0.329452052712441,0.432191781699657,8.36290090362295e-20,-0.02357,-0.001985,0.0238475,0.133961872934055
56827,"N",5.78742189652893,5.57765422337884,5.41169633096648,6.10199684714619,0.100700977265089,0.041639674092023,0.041639674092023,0.10070117612841,0.166502465638493,0.232874874955111,0.0285714287310839,0.203174605965614,-6.89655172414012e-07,-0.01834,0,0.01161,0.0990596598711761
40284,"N",2.31000056950574,1.20593244849616,0.981755695967748,2.4621461316755,0.0842225112282895,0.0645897137109698,0.0645897137109698,0.107737739326873,0.454667527395624,0.147151540801741,0.380392163991928,0.482352942228317,5.43478260866078e-08,-0.0478575,0.00075,0.0311375,0.106710740654516
24198,"N",2.49341284033028,2.58605962922989,1.70971027799684,3.22463507081721,0.0720167447914612,0.0411400328432209,0.0411400328432209,0.0895617893043842,0.398809529065922,0.159065888121057,0.375457882881165,0.434065937995911,-4.62962962963004e-07,-0.06688,-0.00324,0.0258775,0.141503976215619
28260,"N",0.590636587428578,0.154054546409267,0.0542309041971506,0.91794741310623,0.0408042885680425,0.0397064210263259,0.0397064210263259,0.0460440573219705,0.429241953732131,0.148854910707048,0.35326087474823,0.472826093435287,3.89610389610562e-07,-0.03165,0.00037,0.02695,0.103447417184841
58974,"N",9.23427818818424,8.45047263038344,7.83396688935565,11.1370595274519,0.130436609207271,0.0565350895978098,0.0565350895978098,0.134534828771147,0.140257123199949,0.183482604318049,0.0458515286445618,0.161572054028511,2.09790209790168e-07,-0.035275,-0.00387,0.027275,0.117597154658429
51052,"N",0.861367996706388,0.261140479598367,0.110895502161985,0.500892735315854,0.0493672469179528,0.0410609947368614,0.0410609947368614,0.0666039324161263,0.451366764356693,0.169059773274265,0.383480817079544,0.486725658178329,1.17782001840693e-19,-0.019165,0.00681,0.027165,0.126509952562228
40522,"N",3.16228471569327,2.54054871571833,1.98992394151136,3.6790082154737,0.0789046223688795,0.0379816762116092,0.0379816762116092,0.0866338042170068,0.16828042414919,0.160952293016569,0.081904761493206,0.174285713583231,-8.89478709388932e-19,-0.0364825,-0.008205,0.0079575,0.127107482973946
14130,"N",0.664571846165818,0.315658150439193,0.230248580087856,0.610458538964131,0.0375503930501128,0.0309935594827789,0.0309935594827789,0.0427562518546267,0.152188328811182,0.207563896777538,0.0568965515121818,0.13850574567914,1.92307692307632e-07,-0.031855,-0.00462,0.0133375,0.160657832518297
52243,"N",3.61112000473575,3.22391974725473,2.81780478346311,4.23557477084391,0.0896196040128291,0.0479240183249999,0.0479240183249999,0.117646492808522,0.155929040518545,0.239194716801662,0.0441176481544971,0.132352948188782,-3.17460317460145e-07,-0.03781,-6e-04,0.044215,0.136880128049094
9137,"N",0.95769149566337,0.601244511132943,0.323974781816258,0.683490075384586,0.0509998714777497,0.0355194611794561,0.0355194611794561,0.0607415819456238,0.23147714006956,0.184425390106995,0.112517580389977,0.27144867181778,1.23456790122097e-07,-0.03096,0.00153,0.01658,0.123715835612239
6623,"N",0.9393296866491,0.414276420231078,0.372035064231785,0.593883049679215,0.056312108776431,0.042815391309315,0.042815391309315,0.0744228018848521,0.125316522455629,0.162181424629458,0.0392749235033989,0.148036256432533,4.04624277456557e-07,-0.01703,-0.00168,0.01694,0.0982080278734321
31618,"N",2.57437642747703,2.76878130643778,1.60606248607996,3.20494547311263,0.0796916003501253,0.0468332525159041,0.0468332525159041,0.0963838242802046,0.17760377237783,0.187160074739304,0.0869158878922462,0.16915887594223,3.60360360361017e-07,-0.032135,0.00019,0.03627,0.126217379410775
4547,"N",1.96371170589717,1.69881364370567,1.5174619823264,2.27259026760568,0.0567325787586398,0.0210193785955962,0.0210193785955962,0.059729951096284,0.175735775144263,0.146705117015253,0.105215827003121,0.17985612154007,-9.09090909090483e-08,-0.027055,-0.004805,0.0484125,0.135069709705056
56529,"N",2.66365986399733,2.30494562071885,1.98017352923449,3.14880895739334,0.0681636954044444,0.0281765466714076,0.0281765466714076,0.078866754973082,0.296471207676166,0.20580596703146,0.164926931262016,0.351774528622627,1.94174757281286e-07,-0.026685,-0.00164,0.01842,0.137094497965859
30552,"N",1.87861944329842,1.7128078225607,1.39546228995915,2.23541518933931,0.0714790132107336,0.0452961541386929,0.0452961541386929,0.0794680177274263,0.154176423651666,0.202828258029677,0.0644028075039387,0.136416863650084,6.48148148147624e-07,-0.040165,-0.00874,0.036395,0.172820474126031
7188,"N",3.45791360474278,3.64280573771099,2.58394036491207,4.02842127843795,0.076585307405797,0.0265491596787534,0.0265491596787534,0.0710498742414746,0.437238917228902,0.163151993754465,0.37085634469986,0.466160215437412,-1.21951219512497e-07,-0.0143625,-0.00289,0.0118,0.140037019810009
45919,"N",0.971435937256745,0.432610350075645,0.35660060610667,0.523744558520968,0.056625646517699,0.0405200370203765,0.0405200370203765,0.0692723460488937,0.740835480652489,0.184919965370751,0.689473688602448,0.848684191703796,1.39860139859996e-07,-0.016775,0.0026,0.016405,0.0861296401189657
3178,"N",2.25649785963712,2.08547634440483,1.74858131238848,2.47108666552313,0.0666544111709237,0.0351593324022482,0.0351593324022482,0.0675375286634065,0.310301288934142,0.144534115914439,0.266283512115479,0.29214558750391,2.27272727272531e-07,-0.01666,-0.000605,0.026935,0.132954595156506
62794,"N",1.76547229769681,1.51785246255744,1.07115557031581,2.31356040569115,0.0603078017732205,0.0362598350194774,0.0362598350194774,0.0756673740818813,0.563653581545633,0.184794034127263,0.572450816631317,0.640429317951202,1.17647058823784e-07,-0.01688,-0.00063,0.01023,0.0645916189922006
17787,"N",0.738929121394063,0.373100808106116,0.226020611248234,0.844133963500561,0.0484060462845582,0.0395496925862992,0.0395496925862992,0.060924111672155,0.435207658971759,0.180981097294002,0.415798604488373,0.498263895511627,-9.7087378641369e-08,-0.033125,0.00198,0.03134,0.133566513007749
602,"N",0.526445687769624,0.112887523470619,0.0497542519659677,0.81430293901254,0.0391337882389152,0.0368347498325464,0.0368347498325464,0.0511956782900074,0.439760116174033,0.125273924249484,0.384920626878738,0.468253970146179,5.03716688565153e-19,-0.02767,-0.00095,0.01186,0.104248764297596
18876,"N",0.734783024468301,0.13116342426537,0.0703440466794684,0.433042110726609,0.0485375469387633,0.0453389714804001,0.0453389714804001,0.064904710104491,0.164928821560282,0.149986162583502,0.0876623392105103,0.185064941644669,1.92307692307398e-07,-0.0377325,-0.00548,0.0115375,0.136839998850481
19772,"N",1.99953550197705,2.30738030379747,0.758223519335856,2.58311824932914,0.0648341208144208,0.0339195255099843,0.0339195255099843,0.0679171429132633,0.259412991677356,0.206197803869626,0.164926931262016,0.273486435413361,8.23529411764825e-07,-0.02131,0.00191,0.02824,0.122038579118905
54220,"N",1.75561934085312,1.463215400695,1.12847092610252,2.54946017588681,0.0613028745496735,0.0345503983062289,0.0345503983062289,0.0758768333053313,0.287039621936856,0.175919173996975,0.189732141792774,0.325892850756645,-2.34375000000501e-07,-0.0782625,-0.01787,0.0554175,0.14847972949202
2302,"N",0.604099242267504,0.282644728943116,0.184375263224327,0.657650980077613,0.0415193060490659,0.0310582459775468,0.0310582459775468,0.0534949994124675,0.197221753638118,0.128817236078269,0.157068058848381,0.19502617418766,-8.06451612903923e-08,-0.039175,-0.00195,0.0350225,0.117492374922946
17816,"N",3.27016643040716,3.45194197823028,2.38642374505384,3.86124046012683,0.0770249974592358,0.0321574157158572,0.0321574157158572,0.0864573392883871,0.110252080460189,0.183426655405525,0.0330578498542309,0.0964187309145927,1.07526881719314e-07,-0.01826,0,0.01991,0.141012809559171
51497,"N",0.300182950321207,0.134662503363192,0.0299562495199964,0.436343740470708,0.0320967919467371,0.0242806590717734,0.0242806590717734,0.0404856113025976,0.297259934788643,0.156314147721477,0.231809701770544,0.354011192917824,2.40963855421759e-07,-0.0277,-0.000765,0.0206875,0.105227395142265
10892,"N",0.703729175411457,0.14805151289474,0.0872243505290147,0.208894452027611,0.0468250324586932,0.0424685325863842,0.0424685325863842,0.0606426875051107,0.202860649084536,0.144795138200617,0.135667398571968,0.203501090407372,-8.13008130082277e-08,-0.01816,-0.00291,0.019435,0.111731463196479
65918,"N",2.87484153836668,2.23170474188495,1.88993497215987,3.54385746172357,0.074442364313667,0.0352262872246444,0.0352262872246444,0.0843607012498234,0.189357715288866,0.179626677931407,0.0908018853515387,0.215801883488894,6.84931506850327e-08,-0.05078,-0.00316,0.02287,0.136473401730869
65605,"N",0.883824588817657,0.36627245425197,0.253170121701829,0.517933863887334,0.0521056626135122,0.0446110373091642,0.0446110373091642,0.0649025167648041,0.414884145736737,0.206229175488176,0.272549033164978,0.541176497936249,3.40909090909387e-07,-0.028675,-0.00586,0.0244375,0.136820998879431
4750,"N",1.49382477135955,1.25379526267221,0.986848854338473,1.60197643560182,0.051245903242734,0.0192891576692043,0.0192891576692043,0.0345792343486701,0.269175026852351,0.200400203447108,0.152173906564713,0.313043475151062,2.56410256410862e-07,-0.06258,0.00644,0.06802,0.140109853000038
54015,"N",0.881317874676445,0.376690276342141,0.232711914877644,0.479510704062991,0.054339380827284,0.049620846808729,0.049620846808729,0.0709026917430356,0.162145972934215,0.184870005962892,0.0588235296308994,0.192156866192818,-2.77777777778166e-07,-0.0453425,-0.00054,0.02608,0.138032070870264
58151,"N",2.83321096255595,2.30332609211535,1.92314229599482,3.30102559642591,0.0727888930436757,0.0324366977998474,0.0324366977998474,0.0814575263623305,0.147381118056199,0.17164186785076,0.0737704932689667,0.147540986537933,-2.12765957447436e-07,-0.03584,-0.00731,0.02844,0.118888293358983
71581,"N",1.68389733583988,1.45279385307893,1.13002273355435,2.4303004405107,0.0594840932317871,0.0332902876065526,0.0332902876065526,0.0744428387852116,0.079125759209336,0.146719310184755,0.0217391308397055,0.0695652142167091,-1.07526881720371e-07,-0.013295,-0.000475,0.011285,0.115177053082396
49724,"N",3.60950819398065,3.25519999705553,2.75071998855353,4.22948003878117,0.0820832564762403,0.0333112078732246,0.0333112078732246,0.0865503432606439,0.141152358358965,0.150712024571383,0.0808678492903709,0.140039443969727,1.67597765363239e-07,-0.02055,-0.00127,0.012875,0.105893181181596
37984,"N",1.03622643835212,0.627389081230922,0.233949853791274,1.06930934727431,0.0582658974271252,0.0478701349473342,0.0478701349473342,0.0615413743224395,0.379053197207226,0.117379783047868,0.341500759124756,0.377871356904507,2.17391304347132e-07,-0.0177875,-0.00091,0.0121725,0.105095139764607
37833,"N",1.51521056070358,0.878077876107139,0.650142360053253,2.15192657351957,0.0656416316831467,0.0423633387738268,0.0423633387738268,0.0688814365474388,0.437876886833692,0.244032495486196,0.253768838942051,0.544912070035934,-2.50000000000088e-07,-0.023085,-0.000885,0.045935,0.138360608446035
34519,"N",2.0270273079243,1.70390886396729,1.52112189016918,2.64757106753206,0.0613979593900425,0.0250319722259853,0.0250319722259853,0.0820326595815994,0.116991188397214,0.146542030538762,0.0567823350429535,0.120662458240986,2.58620689654798e-07,-0.0237575,-0.002705,0.01554,0.138169745769541
9542,"N",2.10823600096453,1.90941131985749,1.61023545639667,2.60390578036411,0.0670315387149246,0.0372587369945849,0.0372587369945849,0.0807535963698606,0.121118186032011,0.174884865974758,0.0428954437375069,0.110589811578393,-1.04166666667804e-07,-0.051745,-0.005365,0.015985,0.155898098010036
72455,"N",0.275937157788796,0.135739562045928,0.0197899021495753,0.373368822595209,0.0310841708545966,0.0234198522844704,0.0234198522844704,0.0406616552157851,0.219352729683905,0.211574994285182,0.068322978913784,0.354037255048752,-3.50877192982042e-07,-0.04688,-0.01691,0.03295,0.11965298384383
44301,"N",0.951790966650279,0.415721281088513,0.344716962210797,0.495718147178183,0.0562119738119161,0.0492401395016785,0.0492401395016785,0.0704190870636558,0.291625146749774,0.201181914723366,0.158632289618254,0.354260087013245,9.25925925927038e-08,-0.0839775,0.00175,0.04483,0.174486299333591
35153,"N",0.646727868826147,0.293535438182431,0.183608342014538,0.77643366214086,0.0403805265997474,0.0300744180132274,0.0300744180132274,0.0463689090713295,0.154170040771938,0.165696970685625,0.0863157883286476,0.14684210345149,-3.07692307693055e-07,-0.0749025,-0.010565,0.03313,0.154500542308265
61234,"N",0.860587964739148,0.43664723344711,0.325241907245956,1.01476220914795,0.0493972714899174,0.0427388050539401,0.0427388050539401,0.0567888681080933,0.250974128372036,0.164338462085295,0.178304243832827,0.298004992306232,3.1250000000012e-07,-0.0743925,-0.01015,0.0162975,0.144075063603254
37294,"N",0.840424107584641,0.427634815907657,0.361757837544857,0.48346529745026,0.0497453047803564,0.0414008435148005,0.0414008435148005,0.0602240666626487,0.146381578611908,0.204031228612229,0.0526315793395042,0.134109314531088,-1.94252889236986e-19,-0.0443225,-0.002655,0.0132025,0.164960912199479
66340,"N",0.430761693047354,0.2086348987014,0.161254829728981,0.355219085185939,0.0328364376069411,0.0258636763639746,0.0258636763639746,0.0403983219039185,0.370131572907411,0.134006782792671,0.315637066960335,0.389961391687393,4.85436893203402e-07,-0.018205,-0.00174,0.017735,0.110244427206794
2172,"N",0.591598340345461,0.218867144312885,0.101970011063078,0.742894606618013,0.0365008228807829,0.0346005298418908,0.0346005298418908,0.0462680187362261,0.394545453958594,0.171005985229552,0.370909094810486,0.454545468091965,-1.07526881720152e-07,-0.02926,-0.00319,0.02765,0.108689437184223
68783,"N",0.617659090881304,0.281923470765616,0.153160088879586,0.384966676677432,0.0400604942285709,0.0332220849313838,0.0332220849313838,0.0527721056111733,0.597260694591361,0.190505626467029,0.49342105537653,0.682017549872398,4.38596491227641e-07,-0.0484775,0.008775,0.0582425,0.159054704583827
72029,"N",0.586834731326666,0.25089280807906,0.185322961664001,0.406811243414904,0.0354133128261657,0.0248366482659417,0.0248366482659417,0.0435606560862352,0.236430329254837,0.187508669238926,0.132683657109737,0.269865065813065,-2.91262135922536e-07,-0.011845,-0.00147,0.013845,0.0887495003405577
35229,"N",1.70518738948465,1.46445069576517,1.30650686301154,1.66797536338543,0.0545513681862603,0.0225333495384571,0.0225333495384571,0.0490391119710757,0.198912677507509,0.167409317053329,0.128545004874468,0.188655979931355,-1.81818181818695e-07,-0.052525,0.002025,0.041935,0.147722117740342
24671,"N",0.733771720225404,0.23915789050805,0.0986903010700549,0.327162325024011,0.0442879998692138,0.038257355754422,0.038257355754422,0.0531694155006433,0.466269847846383,0.182946235793138,0.400910370051861,0.5287114828825,1.38888888889321e-07,-0.0305225,0.001725,0.040235,0.0781749076938258
14000,"N",1.14026830140497,0.670171653969041,0.448319937464549,0.812956519857583,0.0588980243713149,0.0474110648406938,0.0474110648406938,0.0667197878435375,0.166119962348603,0.203918951035362,0.0584192425012589,0.148625429719687,1.13636363635322e-07,-0.0278575,-0.00494,0.0221175,0.143235680181296
5596,"N",2.62351531934564,2.34043537213065,2.12268751429858,3.04349362742481,0.074748097641172,0.0369904911300903,0.0369904911300903,0.0949502775146933,0.273137242679136,0.186328200487577,0.148743018507957,0.342877089977264,-4.81927710842185e-07,-0.02238,-0.00339,0.01596,0.127037537336206
50996,"N",2.86209505896344,2.80535013507687,2.40511321563271,3.21872211925605,0.0734421934300267,0.0375273136310528,0.0375273136310528,0.0737080572980453,0.192723492679831,0.201773987201018,0.063513514585793,0.248648643493652,9.61538461548605e-08,-0.0459475,-0.004715,0.0267425,0.138432709632179
56987,"N",2.0995873625134,1.8684884272085,1.69093944908712,2.60374868545022,0.0579956935420296,0.0198122698625056,0.0198122698625056,0.0674021051891785,0.148522945767154,0.169328113937203,0.0780386757105589,0.143646404147148,2.04081632652623e-07,-0.0442775,-0.00367,0.026215,0.15040446191821
32352,"N",0.720346591366083,0.168169791494418,0.0230124502644498,0.847900964318246,0.0465287524963982,0.0392846959287968,0.0392846959287968,0.063062025259807,0.105884965960132,0.161553258364161,0.0464135035872459,0.101265825331211,-2.10526315789974e-07,-0.023745,-0.00361,0.022585,0.114841248751696
17521,"N",2.63697012095431,2.46205276432923,1.94871626522984,3.05072222314649,0.0693897262588689,0.0310471261459599,0.0310471261459599,0.0650638259514845,0.288704723339134,0.209443259937948,0.155155636370182,0.342412441968918,2.88461538462227e-07,-0.0298025,-0.000805,0.0171475,0.14304588155558
55587,"N",0.912407881489081,0.333605012417296,0.271262949839581,0.55972966834469,0.0557658219650497,0.043444899782205,0.043444899782205,0.0746156864255354,0.388892209590521,0.148129122654652,0.325192809104919,0.428663231432438,-1.16279069767247e-07,-0.02353,-0.00122,0.0241825,0.116044456557103
40744,"N",3.25419494252588,3.26749483288994,2.27877394627672,3.82714425829396,0.0849302059336124,0.0459358146728436,0.0459358146728436,0.10658505512647,0.282238312154299,0.187672936708809,0.154311653226614,0.369515888392925,-2.38095238094582e-07,-0.01591,0.00178,0.025315,0.151106103007813
34522,"N",3.54463691278655,3.64086292824172,2.54675730645174,4.27459545844909,0.0846331053080959,0.0379464305841859,0.0379464305841859,0.106104275222814,0.153606626955205,0.176482904026859,0.0540540553629398,0.207207202911377,-2.68456375838599e-07,-0.03193,-0.00338,0.02707,0.130260478885143
20696,"N",0.300061349229533,0.17182712524434,0.0212851838862051,0.452860161335916,0.0316819180456226,0.022573564418617,0.022573564418617,0.039668456183328,0.159927459992468,0.179987507243879,0.0862290859222412,0.140283137559891,5.88426088158042e-19,-0.0678525,-0.001965,0.0489825,0.159978964276586
12440,"N",1.82123858655406,1.21194884703304,0.746142991519668,3.15128923569227,0.0647153993559874,0.037994626888026,0.037994626888026,0.0646862257612717,0.194353869012595,0.184743185261867,0.132798574864864,0.172905519604683,-8.13008130090971e-08,-0.020285,-0.00155,0.01548,0.0966285625262788
28844,"N",0.57991609480538,0.414985456992677,0.208055458536156,0.600310099671778,0.0332875230164704,0.0203313991956655,0.0203313991956655,0.0309084173647487,0.222317671386508,0.16124561874819,0.163202933967113,0.204767726361752,1.8018018018044e-07,-0.04538,0.00339,0.038585,0.139079559964674
33523,"N",0.935184194068749,0.245965963471015,0.16074290725435,0.417296174396738,0.0534114878852244,0.0471451026465556,0.0471451026465556,0.0678415498126429,0.17347756412122,0.20000813170264,0.0409226203337312,0.196428567171097,3.84615384615489e-07,-0.0370275,-0.003855,0.0258525,0.150698817828795
1152,"N",1.06976528458901,0.711912903735386,0.27238778666089,1.90627787258879,0.0494852300469735,0.0304681566911674,0.0304681566911674,0.0621425927424306,0.265689529269002,0.192057361084003,0.120943956077099,0.324852496385574,1.25000000001223e-07,-0.03128,-0.00247,0.02789,0.148423332342083
